,angle
0,67.21851566205746
1,69.1351978801128
2,71.72229222981676
3,72.48613848814988
4,73.2813489162947
5,73.68289400015911
6,73.85437687402855
7,74.04951527262396
8,74.16035759878942
9,74.33019293468449
10,74.4362385529668
11,74.50173659902852
12,74.45301924029589
13,74.3208335009314
14,74.06460547330997
15,73.93289004787796
16,73.87535942701155
17,74.12064725164798
18,74.3475235741411
19,74.65311185744955
20,74.87743947623038
21,75.08312034308409
22,75.27441249785558
23,75.59628772647245
24,76.02357664424656
25,76.63038074973852
26,77.12339843307173
27,77.33627448259463
28,77.39547618371648
29,77.35174045013754
30,77.21075262664229
31,76.91924004070027
32,76.60526944012389
33,76.26597059255228
34,75.79725320613704
35,75.40505572497929
36,74.89668160670769
37,74.6020795050714
38,74.39250443467327
39,74.22624960495949
40,74.0578829860549
41,73.91009866652429
42,73.74331009379333
43,73.67070970942879
44,73.62351698517205
45,73.60115066499178
46,73.67827136786819
47,73.83302689281858
48,73.96392197560557
49,74.09398315141662
50,74.1551518323125
51,74.2537955336472
52,74.30967634097458
53,74.27837500113601
54,74.2390579085625
55,74.20067940166672
56,74.13875085365855
57,74.08132963774271
58,74.034632372896
59,73.94235991676534
60,73.85637926611302
61,73.78987668056507
62,73.77796471984398
63,73.82588373438021
64,73.92943822028056
65,73.91218999245677
66,73.90907474214747
67,73.8684108449168
68,73.79533881503754
69,73.76845673225132
70,73.74941497092188
71,73.70130406915138
72,73.71283767470798
73,73.60906878510933
74,73.57797282069889
75,73.48487076375747
76,73.39893615129803
77,73.4109404875388
78,73.36481941273556
79,73.27852276158868
80,73.22079865303999
81,72.9874624513337
82,72.83395326037166
83,72.7145530218938
84,72.7002033967486
85,72.74298214347563
86,72.84333712047594
87,72.84555014442418
88,72.88404852114199
89,72.91885638379092
90,72.95873363827172
91,72.94330185492284
92,72.95241049392772
93,72.98833164492663
94,73.04964264120859
95,73.04566591546649
96,73.0138449905675
97,73.07660745905764
98,73.03669729449612
99,73.0527717081644
100,73.04861425720776
101,72.89763605169249
102,72.70569053414368
103,72.62702943743389
104,72.47559376451109
105,72.26381350811472
106,72.08100501057176
107,72.05087358630003
108,71.83518077225878
109,71.71079006248202
110,71.73919761395125
111,71.71850759561498
112,71.70103792318399
113,71.74673662725748
114,71.83545429846548
115,72.0252095141124
116,72.39256001657562
117,72.54825456720634
118,72.48859565087719
119,72.4136368844807
120,72.43618885161413
121,72.2677882386818
122,71.78276450255416
123,71.61565920946612
124,71.3731614961632
125,71.1918587740536
126,71.16736731157206
127,71.2995124157847
128,71.52291188012056
129,71.87125606234812
130,71.91511872124576
131,72.01523091159007
132,72.70299555990508
133,72.95981903823444
134,73.3587650089385
135,73.54669310994466
136,73.42852859727984
137,73.43278923371447
138,73.48201778316256
139,73.50450245156956
140,73.38664432253101
141,73.18553737491476
142,73.13255182055364
143,73.06544346426531
144,72.98214879219773
145,72.94928517739697
146,72.75538814023122
147,72.71323518033144
148,72.67328833478949
149,72.54543667506115
150,72.26543595891785
151,72.03907294128362
152,71.6493230954215
153,71.6456363778702
154,71.62490159305504
155,71.55556028447943
156,71.31184071506671
157,71.12388092065704
158,71.01145381760067
159,70.88944138721837
160,71.68832685880096
161,72.02011821047044
162,72.03266327436164
163,71.59959532452822
164,70.77324079300581
165,69.97663694814858
166,69.29861006620034
167,68.52848821301372
168,68.044361687965
169,67.81640550834749
170,67.55299862126193
171,67.37801855723082
172,67.2625104527716
173,66.9195318606296
174,66.64503576770318
175,66.51435313441253
176,66.24318900875593
177,66.0414640539695
178,65.80567006629796
179,65.62085416777104
180,65.54968261373023
181,65.53853597125742
182,65.50059030682823
183,65.7404924768423
184,66.0484691562807
185,66.33869585210088
186,66.53320992659317
187,66.67235736603247
188,66.73774740560711
189,66.72829621159254
190,66.72537276487046
191,66.7209452190712
192,66.77886495550199
193,66.80007889972337
194,66.84838282874445
195,66.87935803701514
196,66.98301559197527
197,67.05957842196975
198,67.09793343844133
199,67.15870559158243
200,67.21518819674446
201,67.24241349648534
202,67.30500066934636
203,67.33007495510259
204,67.61546061848013
205,67.73235590504162
206,67.97350849879675
207,68.26101295829422
208,68.33822317833203
209,68.10674495881595
210,68.01983744527544
211,67.94225409318905
212,67.87165178228688
213,67.84773605821978
214,67.83194899912824
215,67.81663002786057
216,67.76038310846168
217,67.69342729226676
218,67.57611098306064
219,67.54713859631474
220,67.54915737389138
221,67.54776078264217
222,67.67208844376356
223,67.9233329588317
224,68.19865175340372
225,68.27895481803871
226,68.30107546587794
227,68.38787315946446
228,68.34095772900365
229,68.36029289515557
230,68.3322082131163
231,68.28763799781642
232,68.17708528319811
233,68.04062344056037
234,68.04641508077066
235,67.93398695520223
236,67.83703450969514
237,67.83289663382732
238,67.6842849661234
239,67.63842529626243
240,67.53689737481257
241,67.49625505019428
242,67.37664070166643
243,67.33859680407016
244,67.16864748767044
245,66.89372040229397
246,66.29912184098481
247,66.1398125074572
248,66.26168757518157
249,66.36813855765132
250,66.83075847989421
251,67.40550364432659
252,68.08169501948755
253,68.74970605637397
254,68.89792621316195
255,69.35660882485173
256,69.90848231799748
257,70.23943075035021
258,70.51401951945435
259,70.67726569639085
260,71.43333778844934
261,72.37400618198349
262,72.18494548112393
263,72.18848699161897
264,72.03834707210292
265,71.92878703762756
266,72.25855248697188
267,73.42900747829165
268,75.12506299099311
269,75.74329422775337
270,75.81944936364611
271,75.35695508536752
272,75.72698040583897
273,75.36080189891524
274,74.1456862895435
275,72.60349990263936
276,71.08276148635632
277,70.44561647708221
278,70.24692015743047
279,70.28481185960902
280,70.40365422798011
281,70.55486235806228
282,69.7340923043827
283,69.91562096586749
284,70.04357938259076
285,69.95391990910932
286,69.90028162184315
287,69.60217917334646
288,68.57417120434344
289,68.20879513701891
290,68.0114149127221
291,67.21409872549839
292,67.41233811865732
293,67.16694648540897
294,67.13210002598734
295,67.03490130410907
296,67.86248830465611
297,68.61214785096416
298,69.03040796380193
299,69.32780293507979
300,70.16264277063446
301,70.9380065453255
302,70.68913380704548
303,70.46100536971375
304,69.98454914136661
305,69.81818467503516
306,69.78274903871231
307,69.72965824139767
308,69.89018498654497
309,70.67116386021426
310,71.18802180927668
311,70.83887144290752
312,70.09044072233097
313,69.50753727463183
314,69.08864659542199
315,68.59953199327445
316,68.34162460774516
317,68.21250840806634
318,68.24211225179742
319,69.04481033185314
320,69.91018791495293
321,70.20096137735277
322,70.30788045408163
323,70.6363980343762
324,70.96249145808252
325,71.03447331193271
326,70.94197680493515
327,70.48981930906427
328,70.35382878621161
329,70.20331264478624
330,70.22461360048395
331,70.4372295243053
332,70.65175944234034
333,71.12554774795203
334,70.84462593140913
335,70.92997360339851
336,70.97028636441429
337,69.75172771317924
338,68.55309104852849
339,68.01700969041485
340,67.73244520404752
341,67.41466485227714
342,67.37087228783886
343,67.15082225115934
344,67.03859193257418
345,66.89707657300667
346,67.41050277291679
347,68.22275532878848
348,69.33396576711486
349,70.34834614073597
350,71.66725368426505
351,72.22607851882378
352,72.9335296901682
353,73.42216674991563
354,74.18372271439108
355,74.1749266560184
356,74.1367223612482
357,74.13109008234493
358,73.9027437613147
359,73.85318452020033
360,74.00983714442442
361,73.80935132228402
362,73.21385190589575
363,72.16804437926969
364,71.01759674285763
365,70.36487809028208
366,70.09884367802496
367,69.97979325361271
368,70.10387538583197
369,70.77477135211657
370,70.99164500029408
371,70.60452634644267
372,70.11180359681724
373,69.53048121218876
374,69.23294524283588
375,69.1363540742787
376,69.06953899241908
377,68.95970836176897
378,68.85415511960181
379,68.82733796530297
380,68.91630444764581
381,68.92598891080485
382,68.96883731977964
383,69.06540921541607
384,69.25979098695414
385,69.61018464451215
386,69.96119508216866
387,70.0229890644755
388,69.72866286507755
389,69.23500790431135
390,68.85596866133531
391,68.7193900388197
392,68.68689016444019
393,68.83200325465101
394,68.90224641291218
395,68.87528488478578
396,68.74836356854661
397,68.68214471607405
398,68.48826115438808
399,68.07696073437076
400,67.28799849732103
401,66.75032346090208
402,66.60422900013472
403,66.60353582231504
404,66.74594105448378
405,66.88612748676628
406,67.06239404397971
407,67.20162864260064
408,67.45725453538927
409,67.6295446588127
410,67.66257163979503
411,67.76252213533655
412,67.92086969870886
413,67.82511023198032
414,67.48051962108708
415,67.28992607100645
416,67.25172683903621
417,67.29707841690677
418,67.36353897102795
419,67.87626893462796
420,69.49665705295816
421,71.31241650422089
422,72.95536532183156
423,74.75648194841878
424,76.2511523336853
425,76.3222248898026
426,76.33448217123522
427,76.17508380335573
428,75.75938325932245
429,75.22593365451372
430,74.75144137392954
431,74.63359462940595
432,74.93629978065195
433,76.0438982238559
434,78.35858567455651
435,78.76931697192265
436,78.98587366118949
437,78.92747695743489
438,78.74062189065143
439,78.82631544827638
440,79.401690021203
441,80.15074751716027
442,80.16536909262173
443,78.58248864777035
444,77.74729442357226
445,76.7753641163781
446,77.04699289622633
447,77.58458686203272
448,77.30170507501873
449,76.88427983231662
450,76.30022586920087
451,76.43003683819266
452,75.25210110360892
453,72.41126733450426
454,71.29988339563221
455,70.67248860390605
456,70.24953058347464
457,70.18262437920276
458,69.57475960683708
459,69.90244045100859
460,70.6178227003684
461,70.64859559122927
462,70.84563432649729
463,71.2453918815576
464,72.04724514857811
465,72.9023470300594
466,73.50912196970351
467,73.8260081106991
468,74.07948311839493
469,73.94487013024717
470,74.04052607069515
471,74.13864401685949
472,74.3264444502122
473,74.38945640943302
474,75.15896319801104
475,75.73406913750635
476,76.02352390775316
477,74.90347421129056
478,73.68171481731123
479,73.22713432705679
480,72.3387865977129
481,72.0902529915388
482,71.84938270461451
483,71.48947027565492
484,72.47043041173957
485,74.2360632630329
486,74.97814570931726
487,74.59304419917285
488,74.80103695102315
489,74.847868811292
490,74.6087890341845
491,74.61688339097637
492,74.21174282354299
493,73.91210038498738
494,73.98298733625516
495,73.87567257180925
496,74.47195473166057
497,75.10137131437044
498,75.75411794030191
499,76.19036598692455
500,76.40286632185956
501,76.53132995842144
502,75.63222684333236
503,74.62171736891165
504,74.79699795126793
505,75.11409903963863
506,75.2956743715785
507,75.54984297285611
508,75.68452518010778
509,76.23059404201446
510,76.60033931187509
511,76.34133314335229
512,75.50320443851506
513,74.8288110307637
514,74.51776479465732
515,74.14860235927125
516,73.47245900029651
517,73.29129858947354
518,73.33180994887063
519,73.29759954110041
520,73.30863635630006
521,73.40678511700746
522,73.84551564078843
523,74.62055272813315
524,75.9982826320284
525,75.43733139305532
526,74.94370163340984
527,74.96051712380915
528,75.26326227178811
529,75.22729486052316
530,75.20705468937821
531,75.05669191845496
532,74.84082030009291
533,74.57708016422056
534,74.34007124536835
535,73.88307864834891
536,73.52605187150353
537,73.30999081342453
538,73.36341852988454
539,73.84066316490339
540,74.47101897054262
541,75.28555622442188
542,76.39598452465648
543,79.13344348498639
544,80.4930635484603
545,81.390778130514
546,81.61468425073875
547,80.8681676273958
548,80.27012336180158
549,80.11519293386465
550,79.49331626075575
551,78.86129722137579
552,77.34415862758483
553,75.95479600049855
554,74.15931970472234
555,73.5660726635834
556,73.06457150082005
557,73.08177019770945
558,73.9801847700884
559,75.05651565692436
560,75.56940323869355
561,76.44053607976876
562,78.05244023137398
563,78.3540278030282
564,77.0383944668586
565,77.07043348891088
566,78.02884002950744
567,78.65421779955965
568,78.28410663951975
569,78.9530299629259
570,78.63991416263282
571,79.21915759809586
572,81.07954474573717
573,80.74362045856998
574,80.47698008739002
575,79.97432631052436
576,80.1253530869775
577,78.9553138147287
578,77.80281431893174
579,77.82690375624317
580,78.2070702202687
581,78.52332711438031
582,79.03606337087479
583,79.7457354843056
584,80.46274600371099
585,81.0197160518302
586,80.41822867968473
587,78.91382639556745
588,77.27469549722755
589,77.16118946707209
590,76.91331153805999
591,76.55918965298729
592,76.3423407182594
593,76.10331502043616
594,76.36782963274011
595,79.03167351522991
596,80.26302050849137
597,81.00696233853539
598,79.78996568507299
599,78.86839148896513
600,78.06722456473113
601,77.3476430546728
602,76.38814416839847
603,75.91194269364223
604,75.32334971876317
605,74.3913281700868
606,73.96510365354217
607,73.63139162578025
608,73.53205992290523
609,73.68721640695138
610,73.77375389825144
611,73.9455405221552
612,73.81184767636914
613,73.53619908066757
614,73.4171190558177
615,73.31181545696128
616,73.27150445128005
617,73.10500782622736
618,73.02251815406106
619,72.97405979656168
620,72.89726014213282
621,72.89264860450108
622,72.87724159609611
623,72.86562992597321
624,72.93860237941801
625,73.03914647939004
626,73.1720008606994
627,73.3369254362659
628,73.59881558731341
629,73.84695395748182
630,74.16348757814592
631,74.20668984283489
632,74.25568528151574
633,74.29232878135086
634,74.40918211703313
635,74.5152887469885
636,74.42798532117372
637,74.4370016511088
638,74.44915689440703
639,74.51507588236336
640,74.62621250172676
641,74.73651482503854
642,74.9159837070534
643,74.98483809544376
644,75.0164384604516
645,75.02936915303398
646,75.05888490061525
647,75.13358258726875
648,75.09033185057139
649,75.09949559692441
650,75.13125896019288
651,75.1401468325463
652,75.01113548211846
653,75.0532980596565
654,75.29091705740682
655,75.24163811927522
656,75.4063188150584
657,75.43826015144727
658,75.40688015996231
659,75.44337029368346
660,75.12414964071507
661,74.94870964738773
662,74.27197427305329
663,73.89956495734579
664,73.71482985593609
665,73.78133615165913
666,73.72156450336274
667,72.90635940816759
668,71.74688941081996
669,71.29119075202102
670,71.4002567922165
671,71.43788070407874
672,71.11258805821143
673,70.97164859942168
674,70.93338587694878
675,71.00916714032802
676,71.11558489455966
677,71.13989584258535
678,71.2078624949531
679,71.30288378634944
680,71.33209254279596
681,71.44077502908792
682,71.47066340975638
683,71.70165836101066
684,72.0265861951849
685,73.0307620257295
686,73.6353418561714
687,74.14547387550533
688,74.6151828214556
689,74.90166550408044
690,75.15404587199257
691,75.36733340293362
692,75.58344817781646
693,75.72510803019934
694,75.88998412218531
695,76.05075497003111
696,76.11004343307951
697,76.23461223869324
698,76.33560493991882
699,76.34807468649193
700,76.37322976728332
701,76.46804426879531
702,76.56594890907085
703,76.63435911023275
704,76.61793215802652
705,76.67093838334922
706,76.74863095808954
707,76.85826678595251
708,77.05906681750986
709,77.28625753939183
710,77.39843418981887
711,77.76887976061512
712,77.6668276126389
713,77.65622522856874
714,77.29889280237413
715,76.78216598757218
716,76.19891898407471
717,76.2831054488657
718,76.26762617751834
719,76.61196074013543
720,77.28353527450719
721,78.50189613148308
722,79.01247349577926
723,79.8118334024736
724,80.25529594131449
725,80.3963243075747
726,80.11803509587592
727,79.79953215427933
728,79.1551817833741
729,78.3708795829602
730,77.81458248033108
731,77.37562489378973
732,77.10665252917744
733,77.05877523044019
734,76.97866162502226
735,77.11632627308222
736,77.03693115218252
737,77.22870582857257
738,77.84336285102009
739,79.10849998415272
740,78.88124360984801
741,79.09766193971191
742,79.2811343333344
743,79.6825421422061
744,79.95995819793681
745,80.136995170571
746,79.94159607097573
747,80.11692589808841
748,80.67673375254637
749,80.32041451900406
750,80.71286166526514
751,80.10535974539938
752,79.43120736739353
753,79.1829599346505
754,79.31531463990054
755,80.21478574158087
756,80.34454697282963
757,79.94471826602913
758,79.62402250738909
759,79.32026591507369
760,79.02690497751877
761,79.05595713047397
762,79.42357660630384
763,79.71571948293071
764,80.09404861202212
765,80.32340896568721
766,80.49164372784068
767,80.4149434291768
768,80.37064604492377
769,80.30031651459574
770,80.37619026420836
771,80.43852042569486
772,80.50606159833362
773,80.60581183438076
774,80.76077279506434
775,80.89960645182543
776,81.22492553186876
777,81.33482568932351
778,81.39073370905233
779,81.14828959278827
780,81.1710189023216
781,80.98404144857021
782,80.89842917405132
783,80.99946620263447
784,81.01792075177663
785,80.98566874483218
786,80.80907056115039
787,80.54106318077663
788,80.52359824865755
789,80.69023304197347
790,80.85935067063559
791,80.96042406905117
792,80.68251628624584
793,79.61655710724125
794,78.2460030913266
795,77.04311824912385
796,75.89356052828283
797,75.26602434542305
798,74.74525006799828
799,74.46378567824276
800,74.2893358169444
801,74.12180333556859
802,74.12949386580621
803,74.14240999425455
804,74.48575650049318
805,74.7105949709811
806,75.01366046588015
807,75.21005898384365
808,75.39614472381676
809,75.53992153093894
810,75.78002227450249
811,76.03787425437672
812,76.22810014066532
813,76.34430437800027
814,76.4678554140318
815,76.59574647075031
816,76.7314228066023
817,76.74982383368514
818,76.78670084133044
819,76.71935653648224
820,76.66974159511128
821,76.65778501210261
822,76.6431618184419
823,76.59305160772946
824,76.60446308134452
825,76.62629631793502
826,76.6205829845894
827,76.76106391980974
828,77.0034998807393
829,77.19175441169723
830,77.29914619699676
831,77.37390662203765
832,77.44976090324118
833,77.53926926058257
834,77.75169555609035
835,78.0081714374129
836,78.23764895308855
837,78.71268023803081
838,78.87727990551116
839,79.14401646670623
840,79.25302083989203
841,79.15228542389369
842,79.0887848706073
843,78.79149343885909
844,78.66971014655967
845,78.20610098281306
846,77.90430172738711
847,77.2342616415671
848,76.69683443972716
849,76.63867112438814
850,76.96071001511164
851,77.06780488560223
852,77.27399734940086
853,77.43838502124251
854,77.54035349673397
855,77.60921677734942
856,77.44688726506855
857,77.11469601937081
858,76.8357996064174
859,76.45184474885426
860,76.43767579932943
861,76.25976345280475
862,76.02364612169369
863,75.84561145286523
864,75.99463707370452
865,76.11597970567644
866,75.99819239263118
867,75.98917804979311
868,76.02101594747823
869,76.26746617552345
870,76.41315814167287
871,76.49599476983272
872,76.40125307100014
873,76.22390104569081
874,75.9271135973053
875,76.32548039500611
876,76.55574944323303
877,77.1880406122114
878,77.21480634173147
879,77.32109563648744
880,77.40483642451433
881,77.2888149226775
882,77.64152768499433
883,77.40810293222462
884,77.00586148096212
885,76.83618167762383
886,76.67562037386105
887,76.31631384093994
888,76.70375038168122
889,76.24348702125273
890,76.420162663927
891,76.49957889382738
892,76.63264730962639
893,76.38768512250707
894,76.13469225591889
895,76.07611972901621
896,75.68610524201867
897,75.38889770140078
898,75.72325596709285
899,76.05491925795081
900,76.36355702542313
901,77.01479387370897
902,77.38568338642156
903,77.66978623788394
904,77.91508146793905
905,79.04447051942824
906,80.14276277086871
907,80.90583017242795
908,81.2347470986333
909,81.46136999819147
910,81.49862339493039
911,81.20535442669916
912,80.73822376638336
913,80.72943973795007
914,80.3372328043657
915,80.31613527382464
916,80.15163740083055
917,80.67143812538477
918,80.43928870673074
919,80.21029187203153
