,angle
0,118.41266040693064
1,118.12854965407433
2,117.83561245987975
3,117.63958105692552
4,117.30905598684616
5,116.93438937341551
6,116.79746365931958
7,116.74370358795603
8,116.70747510135155
9,116.69092049822592
10,116.6890670471768
11,116.66679071259915
12,116.65482901167752
13,116.66609153462429
14,116.70641995562522
15,116.70702444912837
16,116.72016555633544
17,116.7298339384109
18,116.71602727368682
19,116.73233318987454
20,116.77688492190269
21,116.81635957559507
22,116.836654075331
23,116.84076061721132
24,116.89029988858258
25,116.93976495866644
26,116.98267807160721
27,116.99676507194351
28,117.03635515006418
29,117.05698481027444
30,117.06787937382514
31,117.07837871564242
32,117.09856142832028
33,117.09208557864514
34,117.11128026510046
35,117.13397202177461
36,117.14915605916657
37,117.14066048283162
38,117.18479151924538
39,117.19688914329363
40,117.2017646744338
41,117.18407052427267
42,117.19503540311513
43,117.1981339199257
44,117.20614834338828
45,117.21853613289365
46,117.22539015711176
47,117.26246481530737
48,117.4053726877056
49,117.57608217851725
50,117.66071756800378
51,117.74207068506243
52,117.78005306280855
53,117.81900419963414
54,117.87675847923612
55,117.92324864823095
56,117.97483114910739
57,117.9943016111511
58,118.01268270981495
59,118.05634488313052
60,118.0962576092233
61,118.12276648723503
62,118.1418503673974
63,118.15358898203212
64,118.1566720103211
65,118.1740142817966
66,118.18926234762958
67,118.1956045103914
68,118.1905652849153
69,118.17912813275176
70,118.2472273342896
71,118.26607650033462
72,118.2758679626832
73,118.28079059791511
74,118.2957728598792
75,118.36887566273677
76,118.3718239206961
77,118.44406669759121
78,118.40340914235301
79,118.39938138164635
80,118.41821226207092
81,118.45226458262141
82,118.47187026339051
83,118.47470029093427
84,118.43215657139402
85,118.32539472185155
86,118.29785037858213
87,118.4044253104503
88,118.45692232328804
89,118.48003147739821
90,118.47556595601604
91,118.50404655992212
92,118.53720499872195
93,118.59416772779178
94,118.49486857086127
95,118.48332048793159
96,118.46080524750396
97,118.45573915316822
98,118.3835241563734
99,118.27328512774777
100,118.14296483291506
101,118.08322407025932
102,118.02072483449047
103,118.0326771662089
104,118.00879745389248
105,118.10259246215709
106,118.05416782012814
107,117.92587348155067
108,117.82652527367603
109,117.60098485624954
110,117.39200424701363
111,117.29795923964375
112,117.24061293727601
113,116.97915683251101
114,116.7095518611302
115,116.66960864344487
116,116.37220940778832
117,115.97669309143315
118,115.91738490914476
119,115.91485007767074
120,115.94391249958983
121,115.87170581942581
122,115.82222605561331
123,115.80001236355493
124,115.70929679110475
125,115.6317116888802
126,115.56837935357088
127,115.40302681589692
128,115.31254514705218
129,115.32618952707807
130,115.30642645502736
131,115.27727364605937
132,115.4000053162715
133,115.39222863028168
134,115.30084355210501
135,115.33897309589423
136,114.99790962235632
137,114.73665740695021
138,114.53591036459899
139,114.50145937828145
140,114.37207336715493
141,114.05407226356414
142,113.93016952650038
143,113.86104339328735
144,113.3289756742044
145,113.25119218435837
146,113.07305638353678
147,113.0609228177394
148,113.13728250341407
149,113.15479046062731
150,113.26491771190516
151,113.50115788538979
152,113.75436731342
153,114.10457277712176
154,114.61771041185084
155,115.21649987599739
156,115.54206410624317
157,115.67689394293379
158,115.87025127007502
159,116.06354698763472
160,116.13237311284199
161,116.41470164563628
162,116.55426861663834
163,116.62171369160602
164,116.65498088080929
165,116.85959282889358
166,116.97879203138902
167,117.03242807703921
168,116.94992617565943
169,116.99471891808216
170,117.04859567404706
171,117.06987296204018
172,117.1613266527132
173,117.17162222550877
174,117.16964687462665
175,117.20409867817149
176,117.35617214239713
177,117.48247834479929
178,117.56442820207384
179,117.64144615040539
180,117.74003036026653
181,117.8082968182166
182,117.90491858089996
183,117.90533259514991
184,117.88097054031891
185,117.92261494594786
186,117.83069795787543
187,117.71122097369684
188,117.58901495736617
189,117.6190700063831
190,117.55685334445613
191,117.49577083600519
192,117.43008520120456
193,117.46808927406526
194,117.57792429448416
195,117.74363708586607
196,117.94691094416693
197,117.93282975953902
198,117.9186301144288
199,117.8994784021192
200,117.9174308158331
201,117.88931268957104
202,117.87423802754802
203,117.89940604992339
204,117.8928873694746
205,118.00995256517734
206,118.04671751070191
207,118.26390963945099
208,118.42535033999249
209,118.56213828637367
210,118.61219024244478
211,118.88957303768352
212,119.38157288077372
213,119.70092817427367
214,119.28701426307738
215,118.88109830970888
216,118.21913858963379
217,117.58241991169739
218,117.6916772289328
219,117.761032372176
220,117.94771034439565
221,118.09278420577354
222,118.74249271235652
223,119.43054228041734
224,119.82127503555449
225,120.51222119261641
226,120.72718670237398
227,120.39399246051063
228,120.49542288313933
229,120.62539084416291
230,120.61843607529315
231,120.56785880537048
232,120.34288330403194
233,120.03165758408726
234,119.88441689557337
235,119.64771654247043
236,119.51784389473764
237,119.3848578918656
238,119.31656795166519
239,119.34532561088504
240,119.11514401792533
241,118.83361547348974
242,118.78140977955108
243,118.76888917817351
244,118.95541628104417
245,119.08327352884668
246,119.05351039433367
247,118.93149646992997
248,118.88591294877163
249,118.80007107758955
250,118.7842158691508
251,118.80495474545687
252,118.91731623738917
253,119.10440108486912
254,119.20135184592863
255,119.51822203595957
256,119.65645640803831
257,119.82833730255328
258,120.05568570298968
259,120.82701855841887
260,121.44402749238054
261,121.64502878468252
262,121.75759311175764
263,121.93773975153431
264,122.45115223906924
265,122.34481806923094
266,122.11955165667362
267,121.74966966918814
268,121.10207798219321
269,120.73099931019601
270,120.42276163253334
271,120.39330230005353
272,119.97654909462551
273,119.96495259725957
274,119.68350327730292
275,119.55973687349179
276,119.49045512777211
277,119.27455600375983
278,119.16497569282681
279,119.05930193588583
280,118.96776472739691
281,118.90160329375918
282,118.84117369136925
283,118.53103481250416
284,118.33823594450524
285,118.27392743016776
286,118.01545233936082
287,118.10514202413334
288,118.07316194506696
289,118.02981456086742
290,118.00803995506595
291,117.98191991061333
292,117.96099093775705
293,117.86390015063601
294,117.82984490713658
295,117.8258100934985
296,117.83233560947534
297,117.81042929504498
298,117.67637248640433
299,117.65940141764334
300,117.74469117979152
301,117.74619772592675
302,117.7693712784172
303,117.77160302337464
304,117.81880239577178
305,117.8774960274852
306,117.93937179802649
307,118.05582911283612
308,118.29489724860586
309,118.45292482176879
310,118.62014668512079
311,118.85014977250947
312,119.40627170936322
313,119.79150150365517
314,120.0675904211061
315,120.20910697041953
316,120.71056398223318
317,121.01156825564104
318,121.23580261238783
319,121.35847308739055
320,121.44267400476912
321,121.54116834179567
322,121.65348645672898
323,121.8651452718629
324,122.06096846959488
325,122.29696172199894
326,122.31523466155534
327,122.3013007351247
328,122.40397409830607
329,122.4399981446658
330,122.36706421798687
331,122.06558974638875
332,121.9745674848285
333,121.87362287799641
334,121.81560644504987
335,121.9784628108026
336,122.21149397941457
337,122.25883866458835
338,122.45258180355353
339,122.47069143473732
340,122.50954011155042
341,122.5252355790366
342,122.52263702084542
343,122.55675565480658
344,122.5250078050286
345,122.50775752650972
346,122.52634481534321
347,122.51588343920875
348,122.51252880470076
349,122.49240435439268
350,122.46237816325834
351,122.43668558704115
352,122.43369671545042
353,122.49906569204236
354,122.54796581597014
355,122.61457783473051
356,122.64968215846224
357,122.73610873948851
358,122.8213807536444
359,122.93534054799488
360,122.87847286521841
361,122.92349312201529
362,122.99690319328721
363,122.96866020579492
364,122.97160919200238
365,122.92860218804313
366,122.93765534447229
367,122.94910253255489
368,122.96339735682042
369,122.99574420527247
370,122.96270840132112
371,122.95869163822306
372,122.99980384537798
373,123.02649665162534
374,122.90463995334193
375,122.80245947652742
376,122.65710301763988
377,122.53983527796012
378,122.3868683555736
379,121.66247923874283
380,121.50545119833586
381,121.41043908702655
382,120.97857911958027
383,120.56351959566224
384,120.52758534868404
385,120.68751741299117
386,121.05782101709197
387,121.31713150137375
388,121.42693703970207
389,121.57657007929745
390,121.69567510165308
391,121.77675100027437
392,121.91056094574702
393,122.01200606511307
394,122.00381411070157
395,121.98695665342137
396,121.87569067713477
397,121.91733886550614
398,121.8438532456058
399,121.76266473918636
400,121.65887005526122
401,121.53294502657258
402,121.45902610317567
403,121.45876261147868
404,121.47558947388558
405,121.57245262243643
406,121.53760183255937
407,121.49125580352111
408,121.4145536503675
409,121.34290669601519
410,121.40212738943879
411,121.49303388443828
412,121.5404713811478
413,121.44822618167738
414,121.69305273132527
415,121.79266549471853
416,121.85131568189834
417,121.94502566109247
418,121.97285441264899
419,122.36066790953993
420,122.4416516025448
421,122.4677685747478
422,122.32672253480112
423,122.3223794157752
424,122.1859318042772
425,122.05822671053517
426,122.20832210782368
427,122.25432874449024
428,122.42106359334934
429,122.79237334655991
430,122.98540039065486
431,122.84463703522107
432,123.03459874575987
433,123.0849389017722
434,122.79053972763731
435,122.56332230248972
436,122.22240173270455
437,122.07631588143556
438,122.12539199750526
439,122.16195058543659
440,121.89661013931556
441,121.70551408541223
442,121.21435263172314
443,120.82288822494135
444,121.0014824118787
445,121.2725477108518
446,121.34834941765897
447,121.41312294376529
448,121.78593857822581
449,122.77785653875922
450,123.36076610494393
451,123.6534139724501
452,123.5615083825862
453,123.51655210102237
454,123.72338926555324
455,123.82794010411246
456,123.94529137069898
457,123.85587524273635
458,123.85244772552883
459,123.9279296120602
460,123.68343398832805
461,123.2483140887853
462,122.92205496690214
463,122.74565011855195
464,122.51138034766865
465,122.24184664587753
466,121.90776250657825
467,121.70688632997513
468,121.8268216005005
469,121.79478754222532
470,121.6001306012625
471,121.46658379877798
472,121.35699482591468
473,121.45535675951898
474,121.42752575972536
475,121.75696291564833
476,121.70311271028325
477,121.68619668991124
478,121.8534043054724
479,121.8493319741481
480,121.87361957460902
481,121.92017109507475
482,122.11258544970428
483,121.9754875351357
484,121.7128293835992
485,121.58541502517812
486,121.42622075648472
487,121.06670596412752
488,120.61121748061676
489,120.25648886571093
490,120.0002655063835
491,119.56572771720492
492,119.53105073270237
493,119.59272507962251
494,119.45059979209053
495,119.24602832320039
496,119.17949639525135
497,118.95306012648254
498,119.0768386928687
499,119.2161141933036
500,119.59873974463741
501,120.33641696288421
502,120.88693678948002
503,121.28908795901125
504,121.47969293934912
505,121.7076777313483
506,121.84282031638583
507,122.3050537663809
508,122.67444642975647
509,122.78986667232479
510,122.87972942332826
511,123.08135241554433
512,123.05172686013825
513,123.05635731785645
514,122.86952389960999
515,122.76162038373499
516,122.69955074456854
517,122.51380615641693
518,122.40170653989676
519,122.31959176958682
520,121.90219105276006
521,121.93895506943142
522,121.85921793074561
523,121.68005020571636
524,120.31170766724235
525,119.79685217004958
526,119.4953778931073
527,119.36023609174524
528,119.34830624127416
529,119.70831925322479
530,120.02369054731808
531,120.04720752964411
532,120.064309400914
533,120.07901280860186
534,120.08318511203385
535,120.38624986724638
536,120.64216106953258
537,120.64290121010647
538,120.5988202059154
539,120.6295937284908
540,120.67209236121687
541,120.79620834215896
542,120.9624114904338
543,121.04285050981431
544,121.19923793668221
545,121.30405716213224
546,121.66776765529286
547,121.80642133983241
548,121.91539076137016
549,122.15234624949184
550,123.10035413878859
551,123.44158189699803
552,123.62148040345946
553,124.06795610818975
554,124.57012656326916
555,124.83321899040607
556,124.90862959169826
557,124.75888555642254
558,124.47293249732718
559,123.34207677318025
560,123.06067177405114
561,122.96726611624277
562,122.4078337219295
563,121.93588053584159
564,121.86776396531599
565,121.85512793299421
566,121.79461217390758
567,121.97970949856548
568,121.46760764432858
569,120.78145403160215
570,120.74763122590863
571,121.2413393661414
572,122.379846426178
573,122.67221792329147
574,122.8528185134744
575,122.9699392348968
576,123.46317374200362
577,123.19966516211815
578,123.09907740507418
579,123.1616290517207
580,122.99270492905592
581,123.04783233744988
582,123.474066307132
583,123.7191473734517
584,123.5631431942243
585,123.49474441702398
586,123.43092431023558
587,123.45928332158601
588,123.4795122510736
589,123.77775484892763
590,124.07573461908953
591,124.24681687326245
592,124.14513614710512
593,124.18172068986522
594,124.28740975888022
595,124.35111181666556
596,124.5308946811038
597,124.64185023945339
598,125.04846458746906
599,125.35534749474479
600,125.82358933447472
601,126.01284654045116
602,126.09338834738628
603,126.08646105847788
604,126.17909662255465
605,126.0469419206949
606,125.66614114945264
607,125.35928077195547
608,125.20696464558344
609,125.12425003830447
610,124.90368776878611
611,124.76980485226784
612,124.62071586572105
613,124.5331694935083
614,124.35850352588591
615,124.17805878371684
616,123.91980950511987
617,123.77658442007206
618,123.72388936923332
619,123.56779859858338
620,122.94003465603848
621,122.6707402000169
622,122.1539562361292
623,121.66666381906619
624,121.74704746370185
625,121.69499158934023
626,121.60087170913742
627,121.31958827555526
628,121.046378169126
629,120.99282529588852
630,120.96532422164589
631,121.54126861779304
632,121.74335205806094
633,121.86321761821097
634,121.87941024607397
635,121.88218946880005
636,121.86683476116269
637,121.88164504096767
638,121.79325050236159
639,121.76165801115701
640,121.67878015292277
641,121.50214001868997
642,121.62174793959568
643,121.7525029405243
644,121.7644705250789
645,121.99214860443303
646,121.97910316529331
647,121.98048152679777
648,121.97828890496072
649,121.94086894538901
650,121.89606881691302
651,121.93190407035746
652,122.08140765713372
653,122.13822341372656
654,122.17151542026824
655,122.22305259814945
656,122.27365077353014
657,122.27921360188722
658,122.38954347210739
659,122.49479071897164
660,122.75221096398113
661,123.16618045608851
662,123.46232146658141
663,123.58951526385181
664,123.96769242092086
665,124.51812323148167
666,124.82163695009865
667,124.8906399247617
668,124.60981673424166
669,124.57537007231548
670,124.4811490749139
671,124.72669970997606
672,124.72645231991811
673,124.681546245058
674,124.58071568618087
675,124.40757360699112
676,123.88604001035293
677,123.70985363345198
678,123.54102526981387
679,123.24176679237507
680,123.0935411415984
681,122.94394049361293
682,122.71030790179339
683,122.60387885034504
684,122.4507077318637
685,122.13720364304245
686,121.97053740614723
687,121.64334341969948
688,120.96199248079967
689,120.24113530602959
690,119.99145942645812
691,119.30344347763652
692,118.87919604508664
693,118.66922797566504
694,118.58671147838056
695,118.51756704466293
696,118.33731796400257
697,118.32141105900895
698,118.41000358020837
699,118.54247119321069
700,118.6138169587043
701,118.71886823472089
702,118.80734140109455
703,118.95930564693775
704,119.16144851106618
705,119.3092057568203
706,119.37893451720426
707,119.35957929962137
708,119.30119730133178
709,119.1507804369128
710,118.87583282248832
711,118.82380330018995
712,118.73082929733634
713,118.6215208099897
714,118.5096004873655
715,118.36146359379967
716,118.33839285515444
717,118.31748640684656
718,118.73921463378119
719,119.44968609744421
720,120.03356482475886
721,120.50040256844899
722,120.65015307007555
723,120.8075191390828
724,121.10836858682086
725,121.2030007769001
726,121.25198817372545
727,121.29034842473219
728,121.32420746868436
729,121.32256206309206
730,121.23959126000405
731,121.11692226068458
732,120.80949157873958
733,120.30087785676137
734,119.76376435642884
735,119.5249312743515
736,119.48320613944144
737,119.21594985288672
738,119.38476865974675
739,119.63860562597152
740,119.79102391166603
741,119.89880277718784
742,119.96067055157303
743,120.02947016633348
744,120.01538452632138
745,119.97902323264024
746,119.96021666328699
747,119.8665756200185
748,119.8365700164334
749,119.80113256385798
750,119.81227848592583
751,119.79055837390554
752,119.7631211847257
753,119.73628869761728
754,119.77920298473698
755,119.84113602438734
756,119.93291937166566
757,119.98939213639946
758,120.05496821561451
759,120.08703247787638
760,120.11778420379005
761,120.12206569649386
762,120.11520538254084
763,120.06970403062958
764,120.02361766755558
765,120.01614652547217
766,119.98554442238553
767,119.9883117793545
768,120.00344565472119
769,120.03919031881264
770,120.06723344326345
771,120.06777605514922
772,120.26163457612236
773,120.32822660471292
774,120.47985020426846
775,120.53719979046292
776,120.59742329754526
777,120.8065310599324
778,121.09910063459773
779,121.45551533671576
780,121.7120142490221
781,122.10315925103221
782,122.32642884678975
783,122.71944089006922
784,122.55864087461146
785,122.17541595476186
786,122.10067896094895
787,122.29612101046044
788,122.27899302496272
789,122.40043408138368
790,122.40919516587078
791,122.35916624245542
792,122.29879017601942
793,122.24522835150137
794,122.18913560346303
795,122.16443672740095
796,122.17335395652185
797,122.21447950770354
798,122.26075717866183
799,122.28270481677185
800,122.31321045136093
801,122.3663462183192
802,122.4388736362794
803,122.45146949690007
804,122.421972882955
805,122.46636048946999
806,122.47772682799251
807,122.52775692435708
808,122.55464942213194
809,122.57633618856212
810,122.59431396558006
811,122.89159701071691
812,122.84479533652294
813,122.63055875935083
814,122.66113919616643
815,122.65350663311986
816,123.06560864752268
817,123.08265515550914
818,123.03389239630323
819,122.24335999119546
820,121.42253156510344
821,121.0360968160835
822,120.4985097101172
823,120.48389463028712
824,120.57667020872344
825,120.48941937807902
826,120.65030955475443
827,120.78162497955006
828,120.67739497598542
829,120.68992800971566
830,121.11373191779093
831,121.51220008582152
832,121.82303617202302
833,122.24464616996025
834,122.71341734359345
835,123.09436156957139
836,123.33943812480715
837,123.52499737067504
838,123.45572035860803
839,123.33297489061832
840,123.34488721327409
841,123.46412661722164
842,123.38764027210752
843,123.53682752380598
844,123.35595820187015
845,123.69048201067773
846,123.81732833465949
847,123.78373622332293
848,123.77073162911458
849,123.74559679471679
850,123.67505727403486
851,123.94907051773319
852,123.86695788409756
853,124.13008198334131
854,123.84315739034864
855,123.64276644057693
856,123.87920792137459
857,123.62482163214608
858,123.55857746324
859,123.368702452057
860,123.4170260850502
861,123.05197190905324
862,122.05660915363885
863,121.79829286056352
864,121.49410973067495
865,121.3735605825589
866,121.45352765553649
867,121.71692777102263
868,122.16329588531397
869,122.35732843533219
870,122.3454127623254
871,122.35133646690363
872,122.154153739597
873,121.88869655454926
874,121.5077445906852
875,121.48357315866963
876,121.48455662530003
877,121.49116816371861
878,121.64088870220195
879,122.0784830141875
