,angle
0,61.90585082743828
1,63.797097397289185
2,65.02996879732672
3,66.04837006622039
4,66.73999195616803
5,67.54390413331153
6,67.85602674798787
7,68.29188615293295
8,68.76762801280977
9,68.81955102068308
10,68.91736486230342
11,69.20792116596604
12,69.2437145306265
13,69.29924236804686
14,69.44090916867923
15,69.70524321553803
16,69.69568894445914
17,69.64143296777591
18,69.55295967616173
19,69.34630307047885
20,69.25791412914853
21,69.04710091801753
22,68.91247134084996
23,68.75863187400606
24,68.77767473504706
25,68.75223101585873
26,68.74363322986724
27,68.85626773398134
28,69.06325998075931
29,69.2543712555191
30,69.39877591726341
31,69.61680342109128
32,69.77098660170066
33,69.9560167274805
34,70.14517769942525
35,70.28653678838117
36,70.33289236283693
37,70.69276379021048
38,71.18348349153297
39,71.84961375283126
40,72.32649601190425
41,72.85535672352975
42,73.13012514680476
43,73.30308630519659
44,73.38704795450917
45,73.3983331214787
46,73.2843253627756
47,73.2033479789851
48,72.83653742846597
49,72.5531061204554
50,72.36767988299889
51,72.19209882144011
52,72.03564672454425
53,71.88495509708403
54,71.79815265161439
55,71.7060565629623
56,71.59346928568817
57,71.29613697309152
58,71.09830681164414
59,70.93012164823074
60,70.4340473955694
61,69.9272536559435
62,69.86616985819349
63,69.86773432062924
64,69.82928355917592
65,69.84270184433713
66,69.7655302888361
67,69.71824499167478
68,69.63334936918228
69,69.6278211210736
70,69.58854432932579
71,69.61278356844211
72,69.63136709197913
73,69.71145506749141
74,69.78260657549372
75,69.75128747258783
76,69.84659135031882
77,69.87751488913825
78,69.88912331002435
79,70.05547405821116
80,70.47153984766028
81,70.87579653661277
82,71.02435966895452
83,71.11550875757047
84,71.17239708907609
85,71.23756007516518
86,71.29594360529651
87,71.29167597224234
88,71.35139216355238
89,71.53313535090264
90,71.72869513464288
91,71.86831541054742
92,72.0212488724984
93,72.1331408186786
94,72.27092832684602
95,72.31692342270561
96,72.32591933818263
97,72.3206092948553
98,72.34296248403857
99,72.42004477192023
100,72.41201115414489
101,72.40544568249747
102,72.346328643193
103,72.36739328757305
104,72.47291794804755
105,72.48603532222337
106,72.50946213896098
107,72.49527373775477
108,72.51001022743934
109,72.46307333380936
110,72.43420723547327
111,72.44639582240026
112,72.38852698169633
113,72.28990666090544
114,72.26568845751038
115,72.26439073050912
116,72.18192454312508
117,72.14949008285608
118,72.12454555355289
119,72.02885481784102
120,72.17261517434233
121,72.26841225245889
122,72.2312245296908
123,72.18602508090626
124,72.11243206106843
125,72.0636202674409
126,72.01069119886692
127,71.96689703158762
128,71.94086525885906
129,71.92516164435001
130,71.88940969170378
131,71.84653698698575
132,71.78088515237202
133,71.7190807160832
134,71.63457945877032
135,71.56884562225946
136,71.49695403112786
137,71.42744904738984
138,71.3731625222902
139,71.37858950226818
140,71.37370394040863
141,71.3837611354255
142,71.38571084591324
143,71.4009488527202
144,71.42706643508384
145,71.5041621985814
146,71.52789950452197
147,71.55211725469223
148,71.55482886248171
149,71.56465819788247
150,71.52019341852478
151,71.61162919357503
152,71.56228551201778
153,71.51374068023998
154,71.41752243542311
155,71.12678956162824
156,70.78225663091757
157,70.5872176153416
158,70.14072186736179
159,69.97187463915249
160,69.99392254564218
161,70.08550289777746
162,70.19735428569506
163,70.28535911581696
164,70.44341729107337
165,70.44198666429962
166,70.53329639345814
167,70.62227124848509
168,70.70223509077906
169,70.77631305565757
170,70.90183696011785
171,71.07784713691834
172,71.34384194870125
173,71.4848282845825
174,71.58665497163095
175,71.56772932240241
176,71.51441909362515
177,71.41798089288584
178,71.14066571053293
179,71.1169806196325
180,71.32340739707782
181,71.41211477685901
182,71.57636211544262
183,71.73729296395985
184,71.93329387858113
185,72.67977460657919
186,73.40502484982652
187,74.13163186425356
188,75.35525794614014
189,75.94062819200973
190,76.27394767270064
191,75.90252624182075
192,75.8191221983652
193,75.83509085309994
194,75.31450419956685
195,74.99398437330319
196,74.89126164943748
197,74.29289429773274
198,72.85744871693527
199,71.94349922805824
200,71.77878181672858
201,71.49735501964584
202,70.6738196322299
203,69.7689416332557
204,68.48751492552664
205,67.63153776698547
206,67.19649544201704
207,67.06333754472014
208,66.54354558752924
209,66.20988580118487
210,65.84241996518229
211,66.08811388837175
212,66.59299625444397
213,68.1018150625762
214,68.89828978655183
215,69.47458657008724
216,71.00053405032266
217,72.88721340638314
218,73.62164590909956
219,74.4446494960118
220,75.03011370005953
221,75.97856899783343
222,77.19702686226653
223,78.26301165844026
224,78.205279701982
225,78.42867855977808
226,78.07832446140041
227,78.13899752101084
228,78.07708340686968
229,77.8719785270247
230,77.90832896547128
231,77.93502351976147
232,78.06909904873706
233,78.29179498477934
234,78.34137390936576
235,78.550772262664
236,78.4843892949088
237,78.37948074612004
238,78.26943030741457
239,77.95933064298225
240,77.19980277800727
241,76.73959195446417
242,76.07690508767635
243,75.65646175247142
244,75.45670231331998
245,75.321506338235
246,75.27929559282038
247,75.28359378247625
248,75.13934888642936
249,75.13367231044099
250,75.20671034056137
251,75.02069584490654
252,74.84948331243892
253,74.67508100650628
254,74.52694579124271
255,74.40627114531856
256,74.25027823438207
257,74.08240064034335
258,74.06650803457354
259,73.9985006510455
260,73.86996986808936
261,73.72075417723589
262,73.6218430593336
263,73.50471239040807
264,73.44749397245357
265,73.36940874949589
266,73.36043293822937
267,73.33016205213822
268,73.25468283273025
269,73.21636068796994
270,73.16063016887684
271,73.10336213831286
272,73.06828595099041
273,73.02654018208992
274,72.96392386785499
275,72.80501474342827
276,72.4937495724505
277,72.36808579794263
278,72.15353941194111
279,72.08090335474371
280,72.02063815013432
281,72.05885772825295
282,71.9354669687591
283,71.88668875466156
284,71.81805060328539
285,71.7440565575202
286,71.62167392045372
287,71.56794514257643
288,71.54141912611227
289,71.40220241303231
290,71.33008993966193
291,71.27563933893002
292,71.21971737065428
293,71.18107323141297
294,71.15920142744693
295,71.16010291161095
296,71.14672208446079
297,71.24854947580963
298,71.27672091772159
299,71.40383417920866
300,71.34551336333388
301,71.20458744361002
302,71.12011462240544
303,71.02389302127852
304,70.98685853333207
305,71.00306901389236
306,70.9918193557533
307,71.00007449243651
308,70.99203285502321
309,71.00444392485095
310,71.03882367076724
311,71.08422907939284
312,71.25732902604075
313,71.39210069861319
314,71.43354497503043
315,71.47187361649843
316,71.44007225712613
317,71.44165067854367
318,71.4313585945671
319,71.44078932090704
320,71.42642145751326
321,71.41685693508512
322,71.39198093515809
323,71.34018336285291
324,71.28917197864807
325,71.28123890683118
326,71.25133818664648
327,71.20687443117639
328,71.17507932282787
329,71.13947899379589
330,71.07617701283452
331,71.0490434117616
332,71.02303432882505
333,70.99002988757894
334,70.96697935669695
335,70.92988133567188
336,70.98212307109677
337,71.05582810549188
338,71.22216939507591
339,71.30993272448062
340,71.38063130614503
341,71.4079091046947
342,71.4722054563949
343,71.47771755235412
344,71.48886512158879
345,71.49229567800516
346,71.50083923800284
347,71.48544531435864
348,71.34798344562152
349,71.21333302611296
350,71.12214523499006
351,71.09516437726079
352,71.07239806204453
353,71.0213445091587
354,70.91767468999151
355,70.8809430928681
356,70.86379977044261
357,70.89369162473508
358,70.9118576518416
359,70.9766350420831
360,70.98716326415128
361,70.96389876622656
362,70.92526926633778
363,70.78342091301633
364,70.71754150212557
365,70.65821260222364
366,70.49882989476612
367,70.34773242309606
368,70.03696071829717
369,69.49522324766806
370,68.57487329035766
371,66.2664586392293
372,63.782135791874545
373,63.20938938227022
374,62.79913153481621
375,63.222591754580904
376,63.74766314295255
377,64.04434101340892
378,64.23310898837417
379,64.39278341367334
380,64.17670472799664
381,64.3176816427085
382,64.46345197818263
383,64.54234246990528
384,64.68415503118837
385,64.88188093720241
386,64.54572812785028
387,64.48864899735835
388,64.55573779678222
389,64.69472780420378
390,64.6851624474756
391,64.6949841903705
392,64.62732541100729
393,64.56457436838689
394,64.55728201534065
395,64.62758776073912
396,64.59226812401714
397,64.59696142826552
398,64.61377564355536
399,64.64919242136645
400,64.68003798091755
401,64.68340975603331
402,64.5792193013369
403,64.72561677555406
404,64.95860944334406
405,65.08485567027438
406,65.624278665247
407,64.96610091633909
408,64.62396923360089
409,64.4642226152819
410,64.31705845057026
411,64.43606203149554
412,64.42644210820878
413,64.44136902565393
414,64.51295449012304
415,64.5744159385242
416,64.6492941571483
417,65.18468610826483
418,65.67088745503584
419,65.75871347236483
420,65.77727498213571
421,65.82589372136728
422,65.78124322097713
423,66.08173862755069
424,66.48963505020042
425,66.77280369248167
426,66.88940937733841
427,66.73640401355699
428,66.4812120921943
429,65.0830242579301
430,63.93628482149199
431,62.66226735212416
432,61.57317552389912
433,61.285294997568954
434,61.13041288678059
435,61.54571881669795
436,61.521999034549765
437,61.63833222418236
438,61.734097238861786
439,62.543204606418044
440,63.086507858732666
441,63.92960001550977
442,64.33138130953417
443,65.59267121974796
444,66.59835291669373
445,68.4487547459835
446,69.98846685948867
447,71.70889879975567
448,72.3299223446416
449,72.39255432745816
450,72.3602595091124
451,71.84835977980971
452,71.41280355831061
453,71.09177847372487
454,70.4877887446608
455,70.4358551932522
456,70.49638843340024
457,70.58474439770158
458,70.33012274921045
459,70.26961341176661
460,70.9009045023881
461,71.14476630908048
462,71.44803685724222
463,71.634614383171
464,72.34553300370915
465,73.17134656153482
466,73.46148965720815
467,73.53701140162472
468,73.66329380998985
469,73.77667264153925
470,73.06444797451105
471,72.23927740541306
472,71.43783101801786
473,71.06089560037582
474,70.57512778141894
475,70.2046039086885
476,70.00350808279845
477,69.86502493873759
478,69.57667061559896
479,69.49013373917018
480,69.48536056942322
481,69.90832727216868
482,70.69832554270462
483,71.72572411146994
484,72.89638899760207
485,73.31303421300146
486,73.58907108172676
487,73.94937718463852
488,74.15483474135031
489,74.39001464331054
490,74.79065305149172
491,75.27854576222576
492,75.82031702144712
493,76.40965808605928
494,76.92363783077725
495,77.33658938285953
496,77.44303151439934
497,77.37708501934759
498,76.9854029839949
499,76.36092726370876
500,76.0545177178445
501,75.60829346313368
502,75.47848540796049
503,75.45998056784734
504,75.5153244240798
505,75.5438732494986
506,75.55660397448128
507,75.49692880671303
508,75.44346568191365
509,75.38094349152277
510,75.41355219689132
511,75.41900607168442
512,75.3847780138404
513,75.415236526222
514,75.42611153167304
515,75.42339779679205
516,75.25618476235368
517,75.17200289100269
518,74.9596478993807
519,74.73967716812338
520,74.67457869731797
521,74.72817502854468
522,74.7781184245763
523,74.72631286991945
524,74.79238077633612
525,74.78596929732419
526,74.7001048153687
527,74.49310210445528
528,74.58328762396002
529,74.4459139608807
530,74.01211733509341
531,73.82163299980121
532,73.64638013061652
533,73.6493863819371
534,73.78420037279444
535,74.32873080838249
536,74.75087024052526
537,74.78461619892573
538,74.35059171144796
539,74.1574086277145
540,74.04804879042771
541,74.06327699909876
542,72.53298556990605
543,71.91528115539323
544,71.1966513433783
545,70.5723554740642
546,69.95858881866813
547,69.85661515842472
548,69.43323443062492
549,69.35264734393031
550,69.43531246137182
551,69.63530846243779
552,69.67976487563753
553,69.69505132531344
554,69.89365667011054
555,70.2083869631657
556,70.36897651860724
557,71.83744274254313
558,73.08426993282812
559,73.77568120410088
560,74.99516661111203
561,76.50392423675645
562,77.17022813442348
563,78.40660416555706
564,79.11128214821926
565,78.75365475164185
566,78.55538112554407
567,78.34847479682597
568,78.23213103348839
569,77.30561928876469
570,75.27052533164897
571,73.27071978635219
572,72.1014985792968
573,71.1050259219829
574,70.40172404516392
575,70.10187501822622
576,68.72812913587875
577,68.09155559947122
578,68.03520166338387
579,68.37242492192121
580,68.61156743414034
581,68.82401021868534
582,68.6041709665824
583,69.31337525951245
584,69.84985498980078
585,70.57550650787992
586,71.8911576049988
587,72.98471281497443
588,73.24571718263063
589,73.44702110623827
590,73.55597976567054
591,73.76152031764276
592,73.830775947631
593,73.65688379622813
594,73.0154777441209
595,71.1458265844485
596,70.43737521758659
597,69.9252124310881
598,69.00275416474715
599,68.36849931273841
600,67.87810861635634
601,67.1072200376975
602,66.53899853567725
603,66.321225515955
604,66.01189713271013
605,66.01037072615618
606,66.05399374433861
607,66.47597839981047
608,67.51746647513342
609,68.24957929483102
610,69.14810753318152
611,70.25301985013034
612,71.53174037273698
613,71.98890193620922
614,71.9639128106539
615,71.92517481326185
616,71.6794942797398
617,71.13952053227207
618,70.76901593048363
619,70.49017185495379
620,69.9532895084738
621,69.9616297930449
622,69.58790635996235
623,68.98792303158764
624,68.15342571028641
625,67.2913729127154
626,66.60713368778156
627,66.33197258769458
628,65.7073308166742
629,65.76840026076101
630,65.94129125972721
631,66.11821611566532
632,66.38654652138686
633,66.51571408254716
634,66.69956763666394
635,66.99986239529586
636,67.47394355213821
637,67.68719924932797
638,67.91001865115176
639,68.18605574006804
640,68.36160152496255
641,68.30560539829474
642,68.32724788355308
643,68.34523339290824
644,68.43545716936057
645,68.5857789397423
646,68.52214215236707
647,68.29281432546775
648,68.40154269163739
649,68.21604283912707
650,68.13943802560546
651,68.12193410390714
652,68.10554140652104
653,68.07704478310805
654,68.40636286596181
655,68.77209772431583
656,68.94038626255157
657,69.02507245754066
658,69.03153023803227
659,69.32438089703342
660,69.6573647868433
661,70.0918006558259
662,70.94433171015525
663,71.77663039172221
664,72.90460390155333
665,73.43840350151724
666,73.7443087193224
667,74.0334226588169
668,74.32425224715087
669,74.79722375629227
670,75.05615764671295
671,75.2553555108634
672,75.19208958517254
673,75.08334586600697
674,74.73389461980818
675,74.30393876534491
676,73.87708456331079
677,74.05764205333836
678,73.79700961722702
679,73.55760523273722
680,73.64337627593957
681,73.86526650561603
682,74.0284207286505
683,74.13829672434741
684,73.82681705935455
685,73.64776776317359
686,72.92620415428196
687,72.64127446329114
688,72.90486336870529
689,73.6294789777831
690,75.47224482108285
691,76.12785241326482
692,77.23300013840681
693,77.7980260748146
694,77.61078063184632
695,77.42567000998254
696,77.83827076050763
697,78.14198252631711
698,78.86814442425883
699,79.40550553314776
700,79.67994519371857
701,79.29204970493532
702,78.78276217847048
703,78.22269841433123
704,77.35077259759369
705,77.81193741435297
706,77.62405873401246
707,77.94315674464399
708,77.98987153805486
709,77.65715457192393
710,76.98876230493066
711,75.81228860573809
712,75.04377026221918
713,73.97262117624688
714,72.83083914981813
715,72.09990985920852
716,71.33193557232309
717,70.5966499491253
718,69.81078307467658
719,69.27025900491087
720,68.76703011496923
721,68.2977733706965
722,68.37624299733811
723,68.65099578708076
724,68.7273413859672
725,69.28581464740509
726,69.38612767752
727,69.46402308289015
728,69.62109254770859
729,69.0421538050115
730,67.60022962662543
731,67.40190797505512
732,67.35110488999257
733,67.51145864952233
734,68.08052634303742
735,68.63879427404345
736,69.04099860494618
737,69.35491953689869
738,69.49024796789973
739,69.96718709678497
740,70.3665783986816
741,70.56682850881785
742,71.03278285717758
743,71.30514707211272
744,71.34501261747403
745,71.14181472247056
746,70.75087083277121
747,70.45896052416654
748,70.0152573454386
749,69.90810617003613
750,69.91038233814227
751,69.70166017114889
752,69.56816722118276
753,69.59507644748211
754,69.51319582409843
755,69.38734866126046
756,69.40137040441456
757,69.22317786754968
758,69.00241413610422
759,68.98127051178048
760,68.90867052564586
761,68.95155234665978
762,68.89204312414651
763,68.81538768480583
764,68.60382995130078
765,68.5232399098023
766,68.39621689790592
767,68.53206026784
768,68.70736548976922
769,68.68419937339529
770,68.8000807417042
771,68.7950870322341
772,68.72615763644589
773,68.86663451331349
774,68.99474269133998
775,69.19668521568349
776,69.090001843386
777,69.08642692665755
778,68.86502810701496
779,68.91127948727807
780,69.15817412244401
781,69.39139577986131
782,69.56887516217931
783,69.86466082829246
784,70.09412454596713
785,70.19903515488713
786,70.34249843573646
787,70.55557579361387
788,70.52449465103273
789,70.35616984531514
790,70.13149969482488
791,70.02241956080222
792,69.41834948211444
793,69.24799375016667
794,68.72639822754931
795,68.79175503814577
796,68.21303591785377
797,67.8861535360143
798,67.27608681816903
799,66.62868396679143
800,66.70136951189521
801,67.30927404040612
802,67.55018284113217
803,68.22079631831568
804,69.473987204379
805,70.19455637764158
806,70.95690623903393
807,71.6781366745481
808,71.82167633533523
809,72.19581711675174
810,72.28238628065661
811,72.44633124153731
812,72.7486401359468
813,73.0958152627712
814,73.30565046710095
815,73.42816004677167
816,73.4780596057367
817,73.43301198527664
818,73.43779477871807
819,73.3387201403954
820,73.0561146153787
821,72.61295693145591
822,72.30404696789533
823,71.82729724635566
824,71.34081622029778
825,70.90693208632051
826,70.61541969177539
827,70.28358282638848
828,70.44040122412383
829,70.57199929308334
830,70.60934989935734
831,70.70564615314454
832,70.89674262504786
833,71.04764065399193
834,71.2539093732837
835,71.47744758574126
836,71.55057589465366
837,71.82488357008856
838,71.7218829966773
839,71.84004247824721
840,72.18323447040835
841,72.91636216960899
842,73.60266675094246
843,74.23637529093091
844,74.40400858087963
845,74.50728688271069
846,74.22281136774721
847,73.66378345629626
848,72.8507170128939
849,72.37751013282148
850,72.11276082748668
851,71.73267601481032
852,71.88261266045224
853,72.01019339223255
854,72.67922829543352
855,73.43567695189212
856,73.72017223443359
857,73.82049468363655
858,73.76175228928659
859,73.356203514755
860,72.74804788494033
861,72.08200516165796
862,71.84040466484015
863,71.87719803036332
864,72.15202622682382
865,72.32290042985038
866,72.4095702040527
867,72.69266899238399
868,72.7924688005099
869,72.80865179597235
870,72.80201517680483
871,72.30386895014587
872,72.27154733770296
873,72.33333590652616
874,72.4862319157652
875,72.98639432391518
876,73.19935741902145
877,73.1973279029797
878,73.43805684015558
879,73.63632302482226
880,73.77395813289863
881,73.68876653801316
882,73.64624799988027
883,73.61544925117501
884,73.5598881152634
885,73.55458798912767
886,73.53859855876165
887,73.64362916335655
888,73.88259112553102
889,73.76310494360668
890,73.22118817386165
891,73.12018995414398
892,73.1266226101653
893,73.1844468151007
894,73.30662165038088
895,73.34665838431422
896,73.4010047726568
897,73.57186773853543
898,73.72908897240906
899,73.54623672567298
900,73.58639469920084
901,73.49447045082682
902,73.2674302773139
903,73.02431176003432
904,72.92510366741365
905,72.80400751768151
906,72.80529471661775
907,73.05092463296725
908,72.82708041832632
909,73.1141255203905
910,73.15839643264233
911,72.8107874511387
912,72.34702932471137
913,72.3399321318708
914,72.3174123241395
915,72.44232548664432
916,72.52526881933002
917,72.59125537075853
918,72.5844824212958
919,72.69842757536333
