,angle
0,44.43449444723501
1,43.483512504255316
2,42.90025725482259
3,42.041996536292594
4,40.93128278412702
5,40.11786353288052
6,39.50697919317548
7,39.21120457108062
8,38.33992043246849
9,37.4918010527837
10,36.663442877527615
11,36.38446486574296
12,35.81768958875561
13,35.62870329436028
14,35.64304871440015
15,35.645203387161224
16,35.786330985249464
17,36.0293792703192
18,36.18061112771711
19,36.288106039009655
20,36.25952366018184
21,36.202548695118026
22,36.02015649978046
23,35.56728906387194
24,35.3983658891752
25,35.27301911786297
26,35.14697334565158
27,35.048655254697756
28,34.9833998435216
29,34.96477685462103
30,34.96739951227054
31,34.98565023298618
32,35.02579616042492
33,35.068509336678254
34,35.088229100193125
35,35.230108516701556
36,35.43663985899125
37,35.687867209178044
38,36.04087366517333
39,36.40199427177818
40,36.667817878234914
41,36.90871207381391
42,37.12815046983084
43,37.61170449219834
44,38.09327257830448
45,39.27039009783412
46,40.256977630021886
47,41.427757943118074
48,42.038418898507366
49,42.68732206728592
50,44.07320953828445
51,45.28669038099094
52,45.873090322674514
53,46.002985475304804
54,45.45981918339087
55,44.93490476959063
56,44.62226058835664
57,44.13373826654329
58,43.89595485298731
59,43.48627352499666
60,43.21535452867881
61,42.98893402319569
62,42.88500957865092
63,42.375676317147146
64,41.96837892721161
65,41.42708328222158
66,40.958249652557406
67,40.34145276140165
68,39.99191242821831
69,39.39650720261412
70,38.673726561987245
71,37.19104340134056
72,35.61944392507865
73,34.50533724294844
74,33.73919985171208
75,32.7062554734109
76,31.548595983015243
77,30.83836585795143
78,30.744489337434164
79,30.689644940131014
80,30.62909504602595
81,30.909846452402327
82,31.507076486166106
83,31.5967544466573
84,31.37771800258511
85,31.172642862247923
86,30.952700211867217
87,30.844836595993918
88,30.268087904696266
89,29.904140871711448
90,29.528103544913506
91,29.297964819884367
92,29.2190194591204
93,29.02554409608853
94,28.63193879075246
95,28.39832059954111
96,28.157354182562173
97,27.862356664974982
98,27.150442876406483
99,26.21316927986338
100,25.29900462576179
101,24.19653432478806
102,23.605263974834187
103,23.269686694291632
104,23.088808997019296
105,23.343684049542976
106,24.140085829165496
107,24.852531473085133
108,25.318880862008854
109,25.589227660739457
110,25.637344090540598
111,25.585998037914884
112,25.433731499735458
113,25.138801023817205
114,24.782579480121555
115,24.03583131681865
116,23.392891284415025
117,22.596064122495047
118,21.794897742532605
119,20.68706227475407
120,19.722597171492286
121,19.051204616047922
122,18.52470528510095
123,18.264791800134898
124,17.809890897820267
125,17.10622125958537
126,16.585169745891818
127,16.189571212425232
128,15.985465590753064
129,15.84309180696292
130,16.33815055992659
131,17.16673226206219
132,17.919651731010088
133,18.601631174411047
134,19.46521335273382
135,20.01878844787803
136,20.74990326175511
137,20.961010214968457
138,21.218018760564036
139,21.556539739873074
140,21.920591518257307
141,22.368765212657316
142,22.635646059010295
143,22.77355497959951
144,21.969004127667755
145,21.23864958830965
146,20.63428275826968
147,19.999250119404486
148,19.593244255461382
149,19.29396222543816
150,19.15547161939914
151,19.003024218890086
152,18.941506514253117
153,18.974213844141637
154,19.224326979001823
155,19.75671803591297
156,21.20612682201445
157,23.122807019196422
158,24.467800952883362
159,25.17184451945094
160,25.72426376474711
161,25.99519303471049
162,26.286657726564215
163,27.24518127521912
164,27.7143330215851
165,27.97317826981457
166,28.1024569231005
167,28.732350759580147
168,29.115389953137385
169,29.210418668794766
170,28.98832784016379
171,28.78688057870851
172,28.679870560627283
173,28.48667350530477
174,28.533785016504112
175,28.48397789957438
176,28.56321530703436
177,28.655069362187092
178,28.54037616168363
179,28.577170798655317
180,28.550621921443962
181,28.65532590640737
182,28.874689417228968
183,29.395634586979373
184,30.767944503665195
185,32.65611652055263
186,34.16429265372152
187,35.404661759994205
188,37.14125025314555
189,38.78805153892369
190,40.09877152885936
191,41.34254284795503
192,42.65673875895142
193,44.90440263224148
194,46.449269596202654
195,47.26398315416251
196,48.85465919568088
197,50.57975303848
198,52.096510844165024
199,52.55960929816043
200,52.80604698982736
201,52.555443656745084
202,52.32671716169091
203,51.84568431503621
204,51.85092033113009
205,52.08616816026647
206,52.06117123586815
207,52.56478059865233
208,52.41657369743621
209,50.90866811623379
210,50.53060122051399
211,49.38585902781298
212,48.71154805279964
213,47.7835182752733
214,47.247849229089724
215,47.18569055972624
216,47.260831843685146
217,46.90673196524998
218,46.604451579884966
219,46.16116246654218
220,45.59557741029841
221,44.07000109005622
222,42.428603739658634
223,41.12197781822559
224,39.9842083352873
225,38.56671324661508
226,37.69720383494978
227,37.30981155100251
228,36.92728631375448
229,37.277763033775955
230,37.50464537169148
231,37.58704442171913
232,37.51318817220428
233,37.58460541163473
234,36.674573601945035
235,36.71047107454187
236,37.03885094386518
237,37.11791727463542
238,37.23620769015051
239,37.18454982474433
240,37.77257685923682
241,37.72684259213043
242,37.71213343492494
243,37.598149261291965
244,37.30332260322642
245,36.98678943733944
246,36.69881289801797
247,36.49955992190377
248,36.3756349556469
249,36.2817679550463
250,36.099078451821846
251,35.9742166058376
252,35.78095040767855
253,35.600291927967625
254,35.44204401274213
255,35.44464731842431
256,35.42720803303739
257,35.373326939406084
258,35.27817964721645
259,35.159162945018345
260,35.11486238065317
261,35.08191945173094
262,35.07781260977264
263,35.066215100475375
264,35.01781642229985
265,34.99553563587483
266,34.938724257543946
267,34.9256670983245
268,34.84034172180837
269,34.67406428018981
270,34.639756191963365
271,34.616009217334415
272,34.68768094674935
273,34.56678160473912
274,34.1904128110134
275,34.097965897684595
276,34.31457744551857
277,34.41174904415865
278,34.504041638497476
279,34.485706086643994
280,34.48044018135583
281,34.44930018807995
282,34.498043618649895
283,34.43505008882264
284,34.26851559319992
285,34.20082341060926
286,34.196316771502985
287,34.35348366018577
288,34.37786629287229
289,34.37690879539983
290,34.38146277288319
291,34.32794255965611
292,34.28900351179475
293,34.125503924391055
294,33.76669669385548
295,33.3094961254389
296,32.77014242364658
297,32.358837032703036
298,32.17378322519852
299,32.16398262275086
300,32.17935194092118
301,32.349762669693504
302,32.55568169147271
303,32.684289474378666
304,32.791229151882916
305,32.75172544234576
306,32.74361725972093
307,32.71549315166404
308,32.5196571064951
309,32.28843159390197
310,32.2407211955729
311,32.35456927283351
312,32.15405483580247
313,32.09717059318764
314,32.10903459396299
315,32.10011620419704
316,31.994472315196077
317,31.893417713465947
318,31.65465215424576
319,31.499347649297274
320,31.51196554026797
321,31.611319683742977
322,31.62649041088468
323,31.77556174462646
324,31.9987627886104
325,32.09792131714764
326,32.20509503530262
327,32.37753783915589
328,32.51903780265189
329,32.70914652551793
330,32.838331260610424
331,32.96063074400486
332,32.990520368626626
333,33.05168424590594
334,33.0107059695017
335,32.92233482829495
336,33.14886879983536
337,33.37171468418798
338,33.35236268994404
339,33.408377723955155
340,33.397618455527905
341,33.44320702421713
342,33.27404382435373
343,33.07229731962071
344,32.89448366190121
345,32.630437246951516
346,31.990905696736352
347,31.669902500508545
348,31.452754914255774
349,31.472031323357992
350,31.75606803144302
351,32.33702908160992
352,33.626317494608045
353,34.602467493256995
354,35.42382235747526
355,36.15606780841851
356,36.874626512543216
357,37.6503324581495
358,38.43459235534595
359,38.93179644122491
360,39.36866838183693
361,39.94383386678182
362,40.47956240457924
363,42.03493666979596
364,42.4871580410591
365,42.664012578657385
366,42.74950466993783
367,42.85125025212244
368,42.65965482438944
369,42.42344233754464
370,42.371246244236794
371,42.2185361327685
372,42.16453102708486
373,42.15331659232803
374,42.007975265929865
375,41.25445107134897
376,40.33953447593576
377,39.58580794253951
378,39.27169600425583
379,38.62143463857214
380,38.34526426840974
381,38.403836616785064
382,38.10426954641646
383,37.04183283747331
384,36.09847812333515
385,34.38887543904622
386,32.5106223859403
387,30.952297432591905
388,29.928994761318002
389,29.325487306945202
390,29.584607773139577
391,29.681989533882067
392,30.20317970973947
393,30.809463526945297
394,31.472647430074655
395,32.121766269897364
396,32.58234832334354
397,32.58213145566913
398,32.49235065562228
399,32.364675182002124
400,31.621620411354403
401,30.59547490812595
402,29.670296305129717
403,28.548595999791015
404,27.628127208885406
405,26.757733893242683
406,26.279905447396352
407,25.96612320435055
408,25.622963806526833
409,25.06069293580644
410,24.4268001630725
411,24.166854701369722
412,23.9355037982537
413,23.57289637208968
414,23.404034254754304
415,23.581293575709918
416,24.41113565830867
417,24.975246597186498
418,25.942411999172442
419,26.919731592671795
420,27.24402381027716
421,27.191020936622145
422,27.246060487068764
423,27.1377889529653
424,26.80333861488276
425,26.63630817468
426,26.38005979065277
427,25.301594305727853
428,24.341588203717563
429,23.18211052113278
430,22.21359574319031
431,20.96706941491778
432,20.394847149015156
433,19.903766313351596
434,19.682876500077462
435,19.158865748384308
436,18.57239792805904
437,18.065793685770796
438,17.535978553867736
439,17.16466688205126
440,16.98357659008581
441,17.39486720257993
442,18.4925576573839
443,19.698024357198435
444,21.104438374596803
445,22.303997084399786
446,23.570791640309924
447,24.276151854319316
448,24.99676450698581
449,25.372692162861277
450,25.732273806068555
451,26.092964662025707
452,26.165259916733227
453,26.340909977805374
454,25.887154971700255
455,24.73371554987303
456,23.719754363975216
457,22.8158124816003
458,21.965967501649263
459,21.39299223007077
460,20.95066614595898
461,20.806414083918128
462,20.645331382031806
463,20.633765944991158
464,20.632725104923257
465,20.663783474123857
466,21.19639228262167
467,22.09923948975627
468,23.46270438231257
469,24.73696739164477
470,25.758314912008768
471,26.25043695163784
472,26.89918051939334
473,27.525428612682507
474,28.135152206886364
475,28.51063161208323
476,28.68920628388742
477,29.097235064025448
478,29.407068866660882
479,29.80688342754873
480,29.846356312608165
481,29.358449637217586
482,28.97681983495439
483,29.036589527244654
484,29.114904411801245
485,29.23300618290509
486,29.032888604760977
487,28.913732384282422
488,28.715757770636213
489,28.4795208153431
490,28.517355355039527
491,28.487408359604583
492,29.007827103990245
493,29.879824959489714
494,30.70378867321879
495,31.989905206720508
496,32.75040858040288
497,34.25391136860269
498,35.553805571129075
499,37.29269549086354
500,39.686272579989875
501,41.94725150609004
502,43.3291133140382
503,45.67965245035969
504,48.13799578185128
505,49.46343200821411
506,50.19203123362728
507,50.76178928073355
508,50.45109804362791
509,49.917233313351495
510,49.176195784110426
511,48.59827177966178
512,48.15304542729807
513,47.73992044203743
514,47.33856871364648
515,47.49559071885527
516,47.50238841856406
517,47.215344769618
518,47.69004802347152
519,48.34462969007388
520,47.93202830769242
521,48.06494380652259
522,48.28509974230433
523,48.61522823894127
524,48.42932255865811
525,47.98077019278798
526,47.38551966620021
527,46.611776390179905
528,46.35074393209634
529,45.981297278469434
530,45.624609607669534
531,45.080611092877334
532,43.60164728766383
533,41.981636176513305
534,40.440255191500604
535,38.63787037129716
536,37.70904369794311
537,36.84062053788224
538,36.388185462276816
539,36.123005922198615
540,35.29391895240434
541,34.42482646697939
542,34.377591737729574
543,34.75285598182863
544,34.74934089343445
545,34.291930517849174
546,34.40655408223895
547,34.434791586551164
548,34.28632891740158
549,34.32134645641906
550,34.39751223776184
551,34.44542159215239
552,34.29091075731599
553,34.25636739590007
554,34.12430243649205
555,33.98706987722215
556,33.76656137530829
557,33.52900464617128
558,33.37007900339351
559,33.34005661861729
560,33.33120272325041
561,33.28226213870669
562,33.19496513839439
563,33.068165011731196
564,34.135295298003
565,34.404643004171604
566,34.42408510560429
567,34.405852055069964
568,34.39825031845806
569,34.3565240203069
570,34.055821443144175
571,33.89185973801544
572,33.801870243043155
573,33.70689061753117
574,33.674891071828334
575,33.66371190389501
576,33.2979587614147
577,33.19232548275578
578,33.121996481786915
579,33.019411638601795
580,32.92628894135531
581,32.88287238624524
582,32.859224798260776
583,32.78520481999992
584,32.727626324299806
585,32.70646414700772
586,32.7614087425296
587,33.02216538924459
588,33.056171614444274
589,33.06417050936941
590,33.033012862115946
591,32.98576819536373
592,32.95469984091241
593,32.83475391478602
594,32.63024415305079
595,32.497647331250775
596,32.42646300853089
597,32.335298778750925
598,32.22919298603865
599,32.190142651445264
600,32.19169905923798
601,32.214078402100014
602,32.38564053139079
603,32.40815943562709
604,32.440151485143204
605,32.45571237206582
606,32.45812695990122
607,32.43247399801283
608,32.338609705219895
609,32.15724950853233
610,31.893413104168776
611,31.76986464158474
612,31.69314674830659
613,31.690715861419473
614,31.672970278091753
615,31.792654983397245
616,32.09953126984923
617,32.25009810463181
618,32.49918570843303
619,32.6526194818407
620,32.74528889937382
621,32.79283457979421
622,32.894682347039854
623,32.90713433987401
624,32.94604714254702
625,32.960523931507595
626,32.97338593307571
627,32.980695238410995
628,33.11584339856316
629,33.15173927003359
630,33.17465533847399
631,33.11353350897049
632,32.815244106448716
633,32.2418109149609
634,31.845614355644422
635,31.50106458354537
636,30.997722136863345
637,30.883551639479073
638,30.694413043628057
639,30.946956353769313
640,31.242752527993343
641,32.16370014823986
642,33.34861609508605
643,33.87975787223823
644,34.33502817791663
645,34.943306269085596
646,35.365544381579795
647,35.892217690715086
648,36.605642642372835
649,37.513842569400374
650,39.02477829864657
651,40.00384474675058
652,40.89944479815762
653,41.033640848388174
654,40.602075915315844
655,40.19459908750867
656,39.739709474545975
657,39.49704411019785
658,39.07666558296407
659,38.79442315149412
660,38.208417916871184
661,37.67082291488144
662,37.37360636545245
663,37.038825897767495
664,36.906047663594315
665,36.90924117159392
666,36.91493209136799
667,35.83246289767665
668,35.12682892649481
669,34.91196530325795
670,34.213621228062046
671,33.250587234374706
672,32.188037208316
673,31.295366983122793
674,30.061749044427128
675,29.23236109753152
676,29.037315129123222
677,28.997348563916976
678,29.487569046185794
679,29.861397759733045
680,30.525063847060963
681,30.928019960298094
682,31.124557258891834
683,31.21709174909562
684,31.238601984907362
685,31.139003788150518
686,30.896258915601617
687,30.662849169354864
688,30.499073684918212
689,30.452213957878353
690,30.085521753961604
691,29.680783019494044
692,29.053917823720727
693,28.177037155081624
694,27.15936355308496
695,26.548835850337582
696,25.67463438744082
697,24.904572560580363
698,24.05670779684637
699,23.612543364119503
700,22.71011922093877
701,22.643934249775548
702,22.523234901106434
703,22.931063071795144
704,24.295948526131298
705,25.436149840796332
706,26.0378769847011
707,26.737980784665847
708,27.347483469185477
709,27.60284482040706
710,27.628750663818586
711,27.40246595284835
712,27.244138323030885
713,27.02642596936985
714,26.207124857049873
715,25.40795457188597
716,24.380441951850795
717,23.20689358410005
718,21.998169936927816
719,21.086275985640107
720,20.38471347803799
721,20.007882936982618
722,19.318056619396145
723,18.92667110392471
724,18.67268340333462
725,18.381486687867756
726,17.925103763355544
727,17.483643774214396
728,17.250606871054607
729,17.900751621939936
730,19.10067914685619
731,20.395172200351777
732,21.84652851178565
733,22.81958895300469
734,23.599843496819904
735,24.185504672551666
736,24.88926326583172
737,25.284999107126225
738,25.454101482821066
739,25.99916581240751
740,26.355552460852905
741,26.70924041693271
742,26.05924126075866
743,24.821706679320474
744,23.516027584767766
745,22.676909990944843
746,21.819003486874543
747,21.233051060881852
748,20.87214985455848
749,20.620352956703606
750,20.50047582503084
751,20.529098113220396
752,20.580262876767627
753,21.17128290230527
754,22.435526111453274
755,23.86205916149091
756,25.81820293458953
757,27.161036261092296
758,28.08366814370313
759,28.575529441662646
760,29.135510609079898
761,30.048165968261298
762,30.271159186569992
763,30.60800508605528
764,30.957140344404717
765,31.573709843923346
766,31.78693089478383
767,31.79689355498791
768,30.934904778621565
769,30.440793996419075
770,29.929772415193447
771,29.911043205764837
772,29.39160457438115
773,28.78561938877595
774,28.54737946924163
775,28.36329752379857
776,28.303018530239743
777,28.317751853086857
778,28.20491155985377
779,28.29509372763263
780,28.779405302827904
781,29.779567784197894
782,30.669470889962575
783,31.98187507274649
784,32.83751951227837
785,33.78277689887958
786,35.58213113435931
787,37.49576313440253
788,39.177201454554286
789,41.07615367946604
790,43.02016202480183
791,45.044471984343936
792,46.547554962356614
793,48.01898405485365
794,49.36868526986083
795,50.46580137613929
796,51.21622497412405
797,50.69407821213451
798,49.22964549795754
799,48.5922770438698
800,48.03212027643829
801,47.55306399453355
802,47.374645063652295
803,47.18990727886158
804,48.150158237193274
805,48.855164835480224
806,48.39958865910705
807,47.78068695049155
808,47.91294734739397
809,48.295224601282
810,48.24709917960638
811,47.99574578833337
812,47.441944393837424
813,47.018216978880034
814,46.7849616375539
815,46.3392244952176
816,46.0718104444851
817,45.770061228775305
818,45.65491360190529
819,45.46692793265353
820,44.5460633986997
821,43.20919674601458
822,40.78186277326619
823,38.91422849858112
824,38.216465408196456
825,37.444344344250716
826,36.98577423666527
827,36.720495054959024
828,36.34873606549333
829,36.12789418707369
830,35.18119729260755
831,34.645612675579734
832,34.29977112620888
833,34.040945540451354
834,33.148652585512764
835,32.65460020707967
836,32.18473099798028
837,31.933939373139662
838,31.744404192791748
839,31.724122574209748
840,31.9647911363417
841,31.89932533894421
842,31.84019772518019
843,31.78554625886362
844,31.78182385277894
845,31.99678078516898
846,32.44939677969425
847,32.766131985727654
848,32.988049453009424
849,32.996905401037615
850,33.01259634838665
851,33.189316493905025
852,33.52106537482286
853,33.96572385517856
854,34.848372739682326
855,35.470224220434666
856,35.806540575390564
857,35.963357103869356
858,35.96257142441554
859,36.03517837834063
860,36.0501705056661
861,36.10954792810103
862,36.124774916584016
863,36.106038574559214
864,36.078158693777524
865,36.103263084825066
866,36.124536063857725
867,36.22002601161879
868,36.2175240610139
869,36.19822308848883
870,36.1545175355304
871,36.07577856004319
872,36.04191020731472
873,35.96100448952391
874,35.89288807017656
875,35.90353324980652
876,35.92205714086381
877,35.86891686346248
878,35.83844052584333
879,35.70298276253692
880,35.6633530007281
881,35.65589586513045
882,35.65910099407517
883,35.6936630144709
884,35.762506392101514
885,35.77367663851051
886,35.87184674569586
887,35.83386198332318
888,35.988759567714396
889,36.08832859972767
890,36.13266194997084
891,36.22626537983338
892,36.294694632613336
893,36.376675175341866
894,36.398449082145255
895,36.37742254036606
896,36.235638504829865
897,36.12751703961949
898,35.99736520210588
