,angle
0,69.74478096015476
1,69.81593741454562
2,70.7641683190214
3,72.37614083625529
4,73.82615497455981
5,74.8911282805545
6,75.9351515988985
7,76.73665934806951
8,77.3843694506942
9,78.08309158963833
10,78.23780980536749
11,78.00627117136763
12,78.09975803108087
13,78.14765882287074
14,78.06853776238533
15,77.99207453778241
16,77.88624303848755
17,77.85230568496205
18,77.74687022870715
19,77.78413939965922
20,78.03961324384768
21,78.30709265359081
22,78.81772099239188
23,79.75128927917024
24,80.30590224304278
25,80.68869440612337
26,81.10361341226236
27,81.37907731773024
28,81.41087302618308
29,81.23944362215619
30,81.13619996580248
31,81.00563676190725
32,80.9263737952354
33,80.83630876120877
34,80.81144881632567
35,80.82619651826626
36,80.36687678635934
37,79.95700887567456
38,79.52743309923528
39,79.32981286572978
40,79.19125373772962
41,79.14529820026439
42,79.1382806703228
43,79.03344321800923
44,78.88547733095746
45,78.66911055582726
46,78.83132852016365
47,78.72190950851788
48,78.86641718786753
49,79.2129946514489
50,79.31784805744707
51,79.79278750699832
52,79.83661314802058
53,79.72926536936029
54,79.8749624604158
55,79.96058085403187
56,79.85500224289909
57,79.72748191596041
58,79.7108635856024
59,79.7741393312627
60,80.12653703637578
61,80.51589864698626
62,80.60701167845473
63,80.4549663605691
64,80.10016501739456
65,79.93221748031517
66,79.90930627713016
67,79.90687273672951
68,80.00781677083224
69,79.49364250338425
70,79.29942828103769
71,79.18919175380569
72,79.14037117439517
73,79.29747329867139
74,79.31231449141433
75,79.14998243375804
76,79.4757367422565
77,80.70890605494073
78,81.69264204854173
79,82.10341693299829
80,81.98793817401702
81,81.9667806830936
82,81.3684266210845
83,80.734270876398
84,80.74018705702609
85,80.75457008674798
86,80.85927168965631
87,80.92906920890356
88,80.95015866082966
89,80.97138292030964
90,81.00840683980104
91,80.97530361888316
92,80.02543241936098
93,79.26067163084757
94,78.96442559110012
95,79.12142295812102
96,79.3437628964879
97,79.37827560816524
98,79.4451238911213
99,79.71765550768524
100,79.84843498101989
101,80.20609371193122
102,80.68524168353072
103,80.7981825320017
104,80.67616210897926
105,80.75381785801433
106,80.97564110169286
107,81.09485714617043
108,80.8878044015701
109,80.65688171160618
110,80.48815991125761
111,80.42638347016558
112,80.37804773514794
113,80.28763145239809
114,80.36111011218534
115,80.31071382315409
116,80.4290036015316
117,80.37635494570358
118,79.94303132659792
119,79.62182687659836
120,79.85335253394658
121,79.90602281368538
122,79.6513456209953
123,79.38771500346948
124,78.5604498081441
125,77.9233277618786
126,77.07556764868512
127,75.27443616225608
128,73.64474598214622
129,73.48199237724128
130,73.60371945517477
131,73.43664080223263
132,72.95561657073598
133,72.0971649512501
134,71.25519886216928
135,70.78938719965814
136,70.69614041383566
137,70.61342215333823
138,70.7715578374631
139,71.05062615291479
140,71.70930926884827
141,72.23513260196984
142,73.5075929285221
143,74.70681498786928
144,76.49808085009326
145,76.99190832711047
146,77.47709804249634
147,78.34738612020412
148,79.14848963246484
149,79.82787627105338
150,80.02517665675414
151,79.9005827719523
152,79.98973050007135
153,80.02640349190426
154,79.90053882538993
155,79.51958800248099
156,79.04673547064044
157,78.17179092223977
158,77.61526390973832
159,77.33382198033898
160,77.05831915992003
161,76.91102346161759
162,76.95056484183038
163,77.14363371491508
164,77.34201625486793
165,77.53406577564093
166,77.9328351153654
167,78.20898444387478
168,78.3493620705442
169,79.0706132852607
170,80.1806975839748
171,80.7354771156481
172,80.86024176294585
173,81.08759202846872
174,81.08062929224324
175,81.31727709579467
176,81.11838647857054
177,80.90106748122729
178,80.73704386067774
179,80.65936770352587
180,80.7633661196766
181,80.82337337587224
182,80.77228100769922
183,80.29689499285311
184,79.46530999637996
185,79.42332290160725
186,79.17256383330852
187,79.53867168531485
188,78.92343636602074
189,78.93003024325539
190,78.95003101371792
191,79.38996400669295
192,79.71866506055595
193,79.74625509358299
194,79.28735382593167
195,79.35697131698284
196,79.06119484856681
197,78.19317355095986
198,77.79010402235517
199,77.89182954379083
200,76.99001297537055
201,76.48827595794029
202,76.34614036728657
203,76.56091395283913
204,76.67137331258424
205,77.60873467130844
206,78.41722397392203
207,78.86327778495294
208,78.8098872915652
209,78.92240191163887
210,79.23240932208859
211,79.54822031997712
212,79.53447812381933
213,79.75702853807086
214,80.047478809504
215,79.73441522775641
216,79.38595049933011
217,79.28579197103119
218,78.89911611874764
219,79.20881758161605
220,79.21718785374536
221,79.08220677010888
222,78.59113503705419
223,78.36480462382082
224,77.95367464305924
225,77.78315525110948
226,77.57081057259458
227,77.27401141490529
228,77.06956070353468
229,76.54819195655465
230,76.13453324801239
231,76.12972596722778
232,76.77974298084862
233,77.19456499826224
234,77.61075817578434
235,77.82534227824503
236,77.97244565269851
237,78.05070322570701
238,78.04470108265315
239,78.00346804449927
240,77.36400051692212
241,77.24644608820037
242,77.10345728439981
243,77.11994631845442
244,77.11148694743424
245,77.21128594308811
246,77.23256270754527
247,77.28258661536904
248,77.2929518933022
249,77.2978985573088
250,77.30367536297315
251,77.27655009783578
252,77.436101978999
253,77.62643796003248
254,77.81729471920995
255,77.94468286088451
256,77.98257723095107
257,78.0454300346338
258,78.07503181420199
259,78.12662469742715
260,78.1030441813068
261,78.01921887521351
262,77.97269137657618
263,77.95177316346815
264,77.93087550024022
265,77.90518699910517
266,77.88034514562476
267,77.74555760483722
268,77.69721072903292
269,77.75592908110785
270,77.70542451117696
271,77.64737232217463
272,77.54463966403803
273,77.61442455117985
274,78.03265548744557
275,78.1244766187909
276,78.11303030854042
277,77.97446471338827
278,77.71582281493836
279,77.58257847653681
280,77.55239436285426
281,77.47773609577627
282,77.3408574082285
283,77.41381245212735
284,77.49613070722967
285,77.60190779642838
286,77.65517683157105
287,77.5820919174263
288,77.65502418475847
289,77.66156272641899
290,77.63296711582555
291,77.7127900799077
292,77.70325686505518
293,77.58745236194218
294,77.5394620818419
295,77.50373945934477
296,77.52775497781222
297,77.7052821125259
298,77.82420203438441
299,77.85414784886166
300,77.88188877797559
301,77.70604356883784
302,77.56650711872113
303,77.68776923252054
304,77.6838182929612
305,77.69146896812552
306,77.6748246024442
307,77.69761475314783
308,77.85527646482551
309,78.011650494046
310,77.87810081419185
311,77.69599224770397
312,77.72430997355418
313,77.77453937875559
314,77.77356338474921
315,77.80700197265833
316,77.78855423740835
317,77.76953908166372
318,77.92293007181722
319,78.09919616945119
320,78.06925830120757
321,77.99723621790311
322,78.0018488177416
323,78.00252571534533
324,77.94045053341519
325,77.83987086116473
326,77.69434163530812
327,77.74003838626317
328,77.8616308115262
329,77.86325474523382
330,77.8200343976471
331,77.76479218423965
332,77.66404642020062
333,77.74264470422035
334,77.70466768082869
335,77.60251964541894
336,77.07518530608753
337,76.5956774044834
338,76.55554556648136
339,76.47482472741487
340,76.46239867718128
341,76.62542972939666
342,76.87605775625507
343,77.02937343718554
344,77.31237997685628
345,77.5556757779978
346,78.00492073233029
347,78.20060599928466
348,78.33243319055991
349,78.37979895256012
350,78.11960794372558
351,77.75829377554913
352,77.29677032211075
353,77.18167510443968
354,77.37431434749715
355,77.6348321463228
356,77.71652854526323
357,77.6062680282806
358,77.45972163910672
359,77.46741765231211
360,77.55288333951947
361,77.58894910833386
362,77.90251970216931
363,77.97448959483533
364,78.1426282048347
365,78.24123756470436
366,78.44601173034556
367,78.3716905916587
368,78.2953963277726
369,78.28105970240911
370,78.19747162303518
371,78.13453314065247
372,77.82943805955497
373,77.68691334525538
374,77.88244820298306
375,78.01741653944096
376,78.28687471950441
377,78.23981904000786
378,78.10149004607628
379,77.53524900821775
380,77.22149523600524
381,76.7930993134335
382,76.2323502288715
383,76.16667181082813
384,76.14870052013654
385,77.19667769786196
386,78.43670852440516
387,79.27512704614257
388,80.44272758907292
389,81.23556390348514
390,82.00504858994549
391,82.2117344613386
392,81.64188638508365
393,81.41127344746701
394,81.06461334136377
395,80.55449851201682
396,80.39137347128562
397,80.20753800170371
398,80.19622807034749
399,80.13952401097856
400,80.06765270838532
401,80.67974054413341
402,81.25654043664902
403,80.83673314837267
404,80.71977417877402
405,80.3262919514892
406,80.05127325045328
407,79.97237690121263
408,79.73390417123022
409,79.84826986991743
410,79.78720493415058
411,79.85215336665452
412,80.09445087112528
413,80.25960515184957
414,80.31969469714983
415,81.16336726087462
416,80.86175811621989
417,80.39885217167674
418,80.20424612495479
419,79.62115129572956
420,79.33469554412581
421,79.06109994606389
422,78.85888772393722
423,78.75522669749495
424,78.6718304064503
425,78.5987433402018
426,78.59272603926904
427,79.03010444522396
428,79.85121808240963
429,80.92952293609508
430,81.24231240640317
431,81.55029286694578
432,81.51736149167165
433,80.93779808686851
434,80.40936249027975
435,79.94550009892819
436,79.41342091393048
437,78.7129040689884
438,78.44614380560958
439,78.1012820289881
440,76.90394950297323
441,75.78068013757377
442,75.34629621851839
443,74.69602204751871
444,73.62034171484804
445,72.67002751458145
446,72.0685114288511
447,71.40251562810003
448,71.02983127755243
449,71.03609519029584
450,71.21432722163809
451,71.40386674849297
452,71.5987716061806
453,72.41816038246994
454,74.10441789532629
455,75.70422961113636
456,78.06617354909078
457,79.58020843789646
458,80.76462651815994
459,81.5354216268739
460,82.02204597127583
461,82.14038784327703
462,82.07388515800454
463,81.87526167178338
464,81.65367304878045
465,81.30993010404494
466,79.86928177427819
467,79.33190166675148
468,78.8292041578849
469,78.10790833582458
470,77.5347967401746
471,77.24185836679048
472,76.8139251420642
473,76.49086250603011
474,76.50417920835838
475,76.4823537391031
476,76.56009839917297
477,76.6341509820754
478,76.83487805403836
479,77.4456112642033
480,78.22123553954698
481,79.42418545520658
482,79.74395145986574
483,79.59334608585482
484,79.67444207340681
485,79.89887829206701
486,80.44833882889331
487,80.78374331017956
488,81.16733980020939
489,81.24572154588677
490,82.19647932994128
491,82.81826277887505
492,82.36373443202883
493,81.9426374991476
494,81.74327661059444
495,81.42230153569099
496,81.39300010792147
497,80.88016459201499
498,80.80137300230967
499,80.28740938435718
500,79.77777093462063
501,79.81472502646989
502,80.57662003178984
503,80.63939653106999
504,80.36513270212596
505,80.22059413109302
506,80.5562230047625
507,81.06874110212046
508,80.98603671099761
509,80.50717659863858
510,79.7044362793067
511,78.80934876032008
512,78.4163636161976
513,78.41229421123435
514,78.3841826646332
515,78.25957409662439
516,77.88953376554286
517,78.21177613425529
518,78.85928493860723
519,79.536068455251
520,80.2065357864492
521,80.15252956593689
522,79.99891323658484
523,79.97352334942589
524,79.87004717668619
525,80.38111886528085
526,81.26469256157857
527,82.18700276423586
528,82.24342960031588
529,81.91421539952225
530,81.97313205720032
531,82.07295340986069
532,81.95259472314483
533,81.1060190148842
534,80.48022423067576
535,79.61335288044745
536,78.79658505207452
537,77.23859756499486
538,76.22941576415053
539,75.2277446697785
540,74.61276270351554
541,74.15450210468069
542,73.86836118329282
543,73.98986911769524
544,74.25875144049071
545,74.53277462247199
546,74.93013674745315
547,75.29083974690174
548,75.6903473723859
549,75.64519070384786
550,75.56642138086946
551,75.72202492247135
552,75.8404810336193
553,75.97777477131734
554,75.96232529408765
555,76.00164862194177
556,76.02291326622735
557,76.06295870192594
558,76.15388108412327
559,76.2613991582947
560,76.37466778253204
561,76.48034525248688
562,76.75886708763564
563,76.91179807422301
564,77.21205261602925
565,77.42325782142854
566,77.66124491090433
567,78.01038565913379
568,78.14310620124026
569,78.10826373074408
570,78.10911312030852
571,78.14380246271901
572,78.13422545586461
573,78.2621004699605
574,78.36984475252055
575,78.40191021269027
576,78.66933643214391
577,78.5699868404155
578,78.48334571392257
579,78.62836589255782
580,78.68012299801534
581,78.69579837692226
582,78.71022392432636
583,78.74249911870596
584,78.72893293180698
585,78.71261474438137
586,78.64682148733607
587,78.4712427578464
588,78.42363930304319
589,78.46452376395965
590,78.42371809176298
591,78.4297826694484
592,78.41669787982592
593,78.41297047930509
594,78.38278973902494
595,78.29252517955435
596,78.19050469788874
597,78.18277917087562
598,78.1525363218448
599,78.1376827375664
600,78.11718446258297
601,78.07350708332847
602,77.99965615659127
603,77.96495848379192
604,77.90824991005576
605,77.91899903376503
606,77.92361711243416
607,77.93417963419404
608,77.95290926515526
609,77.97850572044102
610,78.12500607203776
611,78.2375748604642
612,78.59155818293976
613,78.63129008488141
614,78.73044001409221
615,78.69903732435886
616,78.70235000237307
617,78.61787508048168
618,78.45647408548406
619,78.30995409082168
620,78.32853636385943
621,78.35140832876257
622,78.14514975432154
623,78.06337621849309
624,77.97755160128186
625,78.02478515334148
626,78.13353189281014
627,78.20609721003567
628,78.20368211672714
629,78.23192102313807
630,78.17994635301427
631,78.13032635465892
632,78.10449840778031
633,78.1748226383098
634,78.4318518253388
635,78.50221431460311
636,79.4367682920135
637,79.81062558530557
638,79.95431644360842
639,80.04857826303291
640,80.5257971653852
641,80.72783972066954
642,80.82301018908282
643,81.20072188009482
644,81.1187425045229
645,81.24414409731827
646,81.23181990111722
647,81.28980042282099
648,81.49338553806297
649,81.52068234394899
650,81.5528364067685
651,81.56188860851516
652,81.28726505077273
653,81.18991929911041
654,81.34643844279425
655,81.69187960483681
656,81.8402496218326
657,81.93671899215249
658,81.92276665000271
659,81.63124756461315
660,81.90401335138517
661,82.4772113380997
662,82.50832372263311
663,82.51866590700753
664,82.19662536558243
665,81.81069101992524
666,81.224498758026
667,80.71579089624326
668,80.42657315941419
669,80.1314869104214
670,80.11549224874057
671,79.86787293819656
672,79.9016307742263
673,80.32131168974637
674,81.19726547481353
675,81.88893027273309
676,82.41629929348748
677,83.40135642497805
678,84.34046728777136
679,84.98135036387588
680,84.86351600656144
681,84.6254132934522
682,83.99250653690181
683,83.81228716405485
684,83.74979721783897
685,83.71085920447933
686,83.63911904732849
687,83.72955137915382
688,83.80342800928364
689,83.83283648928332
690,83.80636743498678
691,83.55342855098644
692,83.15371621773919
693,82.97137012862011
694,82.93819087111835
695,82.81419704069175
696,81.86360545118082
697,80.80887411285198
698,80.4656197192718
699,80.35909962849897
700,80.36557357855256
701,80.24065052566793
702,79.66220330745132
703,79.67466774921222
704,79.13283373938248
705,79.11463224105026
706,79.28416069825012
707,78.6612398485429
708,77.76514170776004
709,77.16881672008961
710,76.70227170444112
711,76.44298790454286
712,76.50597991107733
713,76.35663245676243
714,76.2298523441444
715,75.94681364560024
716,76.04322291123997
717,76.60334611558862
718,77.3551263989973
719,77.88267727484242
720,78.37305404174775
721,78.80154655383173
722,78.65871955192034
723,78.2898194460395
724,77.54408816846075
725,76.98690717102387
726,76.65332882694601
727,75.65040963977624
728,74.48378389570432
729,74.17623051011027
730,74.04858029562145
731,73.46034614424414
732,72.4639247915974
733,71.9406914944943
734,71.67453758221825
735,71.81069019820221
736,72.01418065251616
737,72.29311594775925
738,72.80256893365465
739,73.08626077460784
740,73.3299804024225
741,73.8851938299562
742,74.56861397917368
743,76.17595072659218
744,77.57506352610548
745,78.30904631968768
746,79.21448056394225
747,79.88355109277613
748,80.27260358870673
749,80.41349082417379
750,80.53354171432882
751,80.6308002796404
752,80.91034986963538
753,80.2647324712099
754,79.74357429579777
755,79.2136182339856
756,78.3751608416088
757,78.10452287124575
758,77.58023401255973
759,77.37880333059344
760,77.09930515844454
761,76.86831796705724
762,76.77717207147445
763,76.9919584867604
764,77.38705123744289
765,77.93187743626397
766,78.84410356470607
767,79.82093610586571
768,80.3664983894376
769,80.09578866555675
770,80.15387282836264
771,80.09249861970302
772,80.21275951220892
773,80.55670795485915
774,80.89566778184842
775,81.30932733176549
776,81.1552777166082
777,81.07205472767932
778,81.64178613640966
779,82.14085177521984
780,82.27793055896257
781,82.52958018606688
782,82.6426272331326
783,82.86994748024044
784,82.66091213143459
785,82.25099027446062
786,81.80078575410725
787,80.88152158014206
788,80.74246464084487
789,80.4285670321867
790,80.05327233727097
791,79.08782230707966
792,78.31711759451498
793,77.43636698971724
794,77.18183460894905
795,76.3071247632834
796,75.45332126564092
797,75.5558406769794
798,76.23814934971668
799,76.82382926601
800,77.44562906151283
801,77.74594447105906
802,77.71213727487623
803,77.36724627388564
804,77.74407202988795
805,78.26314268295398
806,79.1155130641393
807,79.39716318838254
808,79.30753275887022
809,79.54347099812259
810,80.27643539780256
811,80.91151113424641
812,81.53897641805958
813,81.70508225723512
814,81.91839836591177
815,81.90885785031774
816,81.92633277817792
817,82.04171023979272
818,81.95812583078386
819,81.5094747728639
820,80.24738665513257
821,78.59025934986404
822,77.65276857949807
823,77.59902429139642
824,77.62493541374315
825,77.60606353959787
826,77.51155465136335
827,77.63875097116748
828,77.68222700689633
829,77.95683253132074
830,78.23203349416265
831,78.66860390735629
832,78.40229161796479
833,77.72983649807965
834,77.8481117328447
835,77.83001879679729
836,77.57199906137473
837,77.59489821191146
838,77.5939093139715
839,77.7007074257849
840,77.15161750737225
841,77.09295241995711
842,77.15181826012247
843,77.22222520102676
844,77.18757587482062
845,77.20084068671953
846,77.26161889392209
847,77.49069601243622
848,77.8940127040242
849,78.20648567199581
850,78.24944977597636
851,78.36073962748429
852,78.65888073005404
853,79.04289059785168
854,79.338500603526
855,79.68494640813084
856,80.06603250038206
857,80.2074332614395
858,80.19732405483133
859,80.21171837591854
860,80.25326417321631
861,80.23221120676044
862,80.2572886207899
863,80.28576649330971
864,80.30238957158028
865,80.33153690500397
866,80.31085287864276
867,80.2380891730741
868,80.1929467888713
869,80.22936924094579
870,80.25727327844267
871,80.33136399768486
872,80.36427029634022
873,80.40159007218533
874,80.36180596490037
875,80.27270052839394
876,80.15816452156965
877,80.03774814053484
878,79.80395134196714
879,79.77464384304288
880,79.71300567936099
881,79.6735889829744
882,79.64845655552685
883,79.56280046014905
884,79.42529485571733
885,79.34687322412607
886,79.05545483567388
887,78.97923354940006
888,79.13858005286227
889,79.15508364738605
890,79.16699897608366
891,79.09838545810662
892,79.03192814747828
893,79.01443473879709
894,79.00978493077551
895,79.01999936663235
896,79.07387298640774
897,79.0663566942168
898,78.88082574051779
899,78.77991590054269
900,78.35366529206554
901,78.31924290378888
902,78.36206299446395
903,78.52283818844467
904,78.68617597763286
905,78.80578311631231
906,78.91108656457195
907,79.13056818435957
908,79.20882128422109
909,79.07576669685234
910,78.90531467512149
911,78.6387316295765
912,78.05469780587596
913,77.95666423606752
914,77.92524919276529
915,78.11915191621021
916,77.98292760768375
917,77.90203560687141
918,77.77151819547659
919,77.59824424475967
