,angle
0,28.3928178881202
1,26.631166271858728
2,26.096903202257526
3,25.810331996965598
4,25.496632972733956
5,25.386944033934853
6,25.303977009956743
7,25.272121627238928
8,25.27285271043664
9,25.242956519575138
10,25.208732884621256
11,25.190203925728746
12,25.14805349120773
13,25.095820075758127
14,25.010297179183773
15,25.012280300594085
16,24.976190231954806
17,24.8987097222221
18,24.772870423239414
19,24.59758798655408
20,24.486209562832485
21,24.403724847834752
22,24.280335765414776
23,24.1236552874488
24,23.927399451310716
25,23.722958995097326
26,23.627865918482474
27,23.496433134953755
28,23.347843225656636
29,23.188619543585475
30,23.12103608214088
31,23.109562169082203
32,23.097877670719484
33,23.065195155498984
34,23.03752092864741
35,23.094549145260842
36,23.104481892715018
37,23.104215523342106
38,23.09174491333437
39,23.10096529987623
40,23.109033367298146
41,23.08200269953934
42,23.169273192771445
43,23.257263423991954
44,23.270467950031257
45,23.235652092259294
46,23.214588164199867
47,23.184176241565666
48,23.043384726252135
49,23.0221746423184
50,23.029590621050705
51,23.04798965261568
52,23.18296259585939
53,23.210965493203915
54,23.115734895854423
55,23.068347682673856
56,22.89956624470641
57,22.88841192829906
58,22.924110988661315
59,22.909629738618733
60,22.948472905857557
61,22.915429401152704
62,22.557461803750947
63,22.39991018556446
64,22.454543540608896
65,22.40482677686752
66,22.20592521263415
67,22.07396465550441
68,22.13230686812211
69,22.118138138745746
70,22.08592298204573
71,22.091958953507515
72,22.289500430979007
73,22.43278215132453
74,22.402571663650605
75,22.315001309136992
76,21.82863245184021
77,21.47789048516422
78,21.465628715071528
79,21.443644732462566
80,21.336911132827755
81,21.191472227679128
82,20.974985954556402
83,20.91564590597768
84,20.96205717343573
85,20.93535376553472
86,20.849092203389436
87,21.20432453120033
88,21.214547181756515
89,21.38085996086771
90,21.51058700989672
91,21.67015991849592
92,22.04906241776816
93,22.40170061504895
94,22.376143748613078
95,22.40326625704895
96,22.366277902047237
97,22.623140268040093
98,22.76050285847346
99,23.0755707672502
100,23.127292788082485
101,23.18151441924556
102,23.243516908304805
103,23.140863152233944
104,23.096231813233224
105,23.094338795464274
106,23.050224770149484
107,23.34629608555193
108,23.551728112847886
109,24.02527373384987
110,24.23824198926914
111,24.600821996122868
112,24.760314121269328
113,24.704444537923212
114,24.682891850525735
115,24.564871932027884
116,24.690120260409056
117,24.821433291774152
118,25.128146572302164
119,25.742721260801382
120,25.92935987153161
121,26.022364537255168
122,26.099047374584142
123,26.233140924541516
124,26.268412984378223
125,26.150892166919405
126,26.042046087643833
127,26.03755764672598
128,25.797811554037747
129,25.975448875302828
130,26.180806446553014
131,26.13224994363899
132,25.84265026021319
133,25.737646191747075
134,25.545130224754224
135,25.424886424016123
136,25.317621278198153
137,25.07047444094074
138,25.33320101372978
139,25.368653677311425
140,25.218415360485263
141,25.101697887001965
142,24.6880698946201
143,24.767546265921165
144,24.68429490924926
145,24.428926987650165
146,24.15810454681421
147,23.520823221826625
148,23.07556405762292
149,22.428652491486933
150,22.38804220293226
151,22.071893972249732
152,21.809961855482385
153,21.741107960507268
154,21.595929909252828
155,21.810147674927354
156,21.988540658777843
157,22.054625102544552
158,22.29361120598831
159,22.900372779801714
160,24.095259120376245
161,24.608544291198726
162,25.194431974588188
163,25.49476015886551
164,26.074298022928406
165,25.679756616964994
166,25.347867929763446
167,25.234453479734256
168,25.131665968238053
169,24.90020517302963
170,24.606938412346665
171,24.53542002581643
172,24.047593088981124
173,23.77757018739413
174,23.014203376653292
175,22.167987661310168
176,21.776042771856748
177,21.74513082842856
178,21.7862990830552
179,21.852859365328968
180,21.97986837670012
181,22.51852797701863
182,22.600173143803158
183,22.452038308314197
184,21.45813652011776
185,20.937508809370573
186,20.6862356228755
187,20.774576416441217
188,20.21182942452784
189,20.493986131534037
190,22.3117339898659
191,23.417501494632305
192,23.95725292852473
193,21.3872728010296
194,21.520439461121896
195,24.133358263550818
196,24.30248010464441
197,25.35255412378211
198,23.976618620582155
199,26.493826989811755
200,27.247673422299847
201,24.683696026137454
202,23.869531522194464
203,21.93317102670585
204,20.5411154242786
205,19.61366174846417
206,18.58214203419679
207,15.829161245852523
208,16.016204462376596
209,20.22197860167156
210,17.055038860033797
211,15.432224016505842
212,15.350705578342625
213,17.659124507857705
214,17.450098087129934
215,18.74417769741565
216,19.00148601755367
217,19.37797419360311
218,20.094170564152883
219,20.152677545995626
220,20.406097988762774
221,20.694253786851096
222,21.26305026800645
223,20.541436066821557
224,19.01085116374107
225,20.263635474565753
226,22.025228853451214
227,22.605563616849516
228,21.651593408777995
229,22.10607276744089
230,25.165540320048603
231,25.720860602842595
232,24.29999516646595
233,22.69045211435442
234,21.93544734860881
235,20.159368080346027
236,19.205972642588495
237,18.663941679369085
238,18.180293553576348
239,18.118115549061503
240,17.978756583662474
241,18.179655340353435
242,18.192012994517572
243,18.040419057308025
244,17.925619397588083
245,17.868457304130594
246,17.998286867069947
247,17.86488482026842
248,18.047716419306006
249,18.323823157480415
250,18.47160956344074
251,18.46233878866864
252,18.620131314650923
253,18.76849144762253
254,18.894898233526668
255,18.922812785508096
256,18.928609016062197
257,18.937192775241904
258,18.85770421092117
259,18.884630216056436
260,18.903278173504617
261,18.87014939969129
262,18.817349130533835
263,18.76553210729027
264,18.733922498891747
265,18.778344077766324
266,18.79834065924482
267,18.841948472895254
268,18.814455465656838
269,18.81306356911184
270,18.663027771954482
271,18.59532410777981
272,18.453999406776273
273,18.322313777498223
274,18.238791784385953
275,18.164867698435163
276,18.331071915092668
277,18.35068890922649
278,18.425675395818043
279,18.387331472930384
280,18.44511117969305
281,18.64846664943564
282,18.725303245613382
283,18.716581103822005
284,18.618153621767487
285,18.528206987657097
286,18.44597833319837
287,18.32200198535873
288,18.297550226807505
289,18.293063566652478
290,18.225566170581082
291,18.185068422660223
292,17.9852062326262
293,17.947100390300903
294,18.063601222846884
295,18.066714459165652
296,18.08173754368878
297,18.03624568473239
298,17.984927715483337
299,17.920858846816934
300,17.876806755023935
301,17.832391618480752
302,17.767567593092586
303,17.670096036239908
304,17.758254900294087
305,17.77506804977445
