,angle
0,68.44650076360767
1,68.03679948970033
2,68.0223374711139
3,67.38575991686595
4,66.79525992041002
5,65.47516364761941
6,64.90753589065869
7,64.61427839095089
8,64.45142737274465
9,63.95560251489009
10,63.545930853209946
11,63.08291949161965
12,62.47793424380318
13,61.85198461651864
14,61.350134514613856
15,60.634723979703054
16,59.781676263996836
17,59.06957115605302
18,58.8383516752591
19,58.5010152592428
20,58.33249792354846
21,58.12721473351859
22,57.974326346190146
23,57.74045285491831
24,57.31827850777729
25,57.00071502563525
26,56.88688600353805
27,56.87664213358169
28,56.87510316312658
29,56.918369049247445
30,56.983035654488916
31,57.04572868109973
32,57.106795844620194
33,57.135730743986244
34,57.169645212848664
35,57.26831998744333
36,57.28707298170486
37,57.307341181661165
38,57.378150504551094
39,57.394669433581484
40,57.47829924331619
41,57.51645850854866
42,57.591008650474
43,57.617903020329564
44,57.62177806168125
45,57.67692247618203
46,57.85031279026517
47,57.91558432372896
48,57.85909480224858
49,57.77424723793401
50,57.656232441770456
51,57.514089339540575
52,57.483253402548314
53,57.467826093783586
54,57.48477502474021
55,57.60187196108149
56,57.59486059098227
57,57.58877480247896
58,57.579448536773725
59,57.46230472112695
60,57.369924307631706
61,57.27256255429605
62,57.15843507160233
63,57.007186350886066
64,56.89379274628523
65,56.82096872427985
66,56.77238168431021
67,56.741837763947316
68,56.71834176999124
69,56.70792246990739
70,56.69532451299196
71,56.67413383788521
72,56.66523199119151
73,56.65377574453142
74,56.65639719523374
75,56.67174697759866
76,56.6696010442524
77,56.71155897984568
78,56.737285922392786
79,56.751093753505764
80,56.76434905984512
81,56.79284135472999
82,56.87205367076795
83,56.985003904629274
84,56.9730982820267
85,56.927567676359196
86,56.87999398922177
87,56.78450243600925
88,56.6807683833412
89,56.62086895713295
90,56.59667484286785
91,56.606130590352166
92,56.69382897173727
93,56.84563406099468
94,57.00900475926112
95,57.10934069670706
96,57.112369298642065
97,57.1182519121691
98,57.103865947003186
99,57.24977265313023
100,57.16636709345061
101,56.88769861768707
102,56.3964227382881
103,55.87635417120102
104,55.40905684708584
105,55.25119425969147
106,55.14566824083271
107,55.15731190193469
108,55.15959442963559
109,55.12131532851905
110,55.11817542636567
111,55.13542301362767
112,55.01772722461052
113,54.85291947222043
114,54.64308639101901
115,54.38799764304716
116,54.0506933075968
117,53.84011528993326
118,53.58171961354606
119,53.49781484661524
120,53.31090326886834
121,53.21595413342452
122,53.04909206418372
123,52.944978468266264
124,52.773924939545836
125,52.67438975740139
126,52.654785376722934
127,52.60874450245232
128,52.62425550140012
129,52.648462406173905
130,52.67540977893503
131,52.71554928078947
132,52.78648992030484
133,53.05499840160688
134,53.23497059840592
135,53.307507393476996
136,53.33457283199413
137,53.381667699139975
138,53.41513368697165
139,53.50708802960775
140,53.608241848489065
141,53.79745671473089
142,53.94117602481321
143,54.01311068789382
144,54.13056463653006
145,54.21976023385163
146,54.19519838848013
147,54.19295696501558
148,54.23302954344021
149,54.31597469420833
150,54.4264141090613
151,54.484926244272465
152,54.40708501257686
153,54.36503497223546
154,54.37001988774457
155,54.37942331310666
156,54.563227584274166
157,54.72381910175498
158,54.72596990045799
159,54.70979711823453
160,54.6468890883882
161,54.535866986456455
162,54.395152892597565
163,54.34372190927501
164,54.283712242808875
165,54.23087845508783
166,54.19878178415315
167,54.1000186521783
168,53.95466002571666
169,53.80537862290441
170,53.70988730916996
171,53.68017680872977
172,53.742353725628035
173,53.784940865102676
174,53.88928980267725
175,53.889905000769744
176,53.88489632973781
177,53.89712185219333
178,53.95576440976723
179,54.0352393571353
180,54.00917378727878
181,54.07530539295557
182,54.1297719892939
183,54.245027476329135
184,54.27143941728031
185,54.2882468108929
186,54.14764803261447
187,54.11270355207214
188,54.002300425067865
189,53.876537528680956
190,53.75123400214324
191,53.66357603977011
192,53.42997429882608
193,53.24633351821019
194,52.97025552945672
195,52.83469641931671
196,52.702503787307194
197,52.472428514412016
198,52.297639905959805
199,52.20438650495793
200,52.12470167204281
201,52.11156246098355
202,52.14689791631744
203,52.21688926409417
204,52.233164128391515
205,52.32177013036767
206,52.39188467439044
207,52.4854145218336
208,52.558108817884204
209,52.66433741891837
210,52.63951041755064
211,52.6178186677532
212,52.58639553668675
213,52.57382537745086
214,52.557728076490896
215,52.454243026027015
216,52.3977528836244
217,52.149255953420095
218,51.9880002559325
219,51.948657553807465
220,52.093073786489235
221,52.17562391148575
222,52.24474583249526
223,52.337274317716634
224,52.43855326775365
225,52.62978260242279
226,52.74874062294583
227,52.81931069450439
228,53.15680275713317
229,53.35163956384997
230,53.362243474027125
231,53.42079355271507
232,53.422298150272205
233,53.380657870621675
234,53.408306932164834
235,53.47494740052179
236,53.53802765842268
237,53.528296705896956
238,53.591840825388964
239,53.540896132723574
240,53.170767833205986
241,52.82868185018022
242,52.69509838144992
243,52.64923920416296
244,52.66810689304585
245,52.83698333057722
246,53.28876049577778
247,53.623771925117076
248,53.99009978481784
249,54.14050981976492
250,54.254016440725586
251,54.3260277608694
252,54.3683758033289
253,54.375398999131654
254,54.35673275877691
255,54.30986971307063
256,54.25937728985976
257,54.20312269302522
258,54.16315166858148
259,54.11423256449567
260,54.061173088442565
261,54.00472473529303
262,53.925869706403155
263,53.90252851697639
264,53.763213573552385
265,53.642552864251606
266,53.63672152559619
267,53.677545405327784
268,53.6845183519798
269,53.769180962824734
270,54.01925968813008
271,54.02903337610607
272,54.066723480813565
273,54.11524235612089
274,54.111133886583886
275,53.959183774283176
276,53.95626200137838
277,53.940053874950195
278,53.9928098390646
279,54.13163065040417
280,54.403379673753776
281,54.59762821305449
282,54.758987783463496
283,54.7394922209025
284,54.694093033954786
285,54.67918340399262
286,54.68262356050088
287,54.69684452564496
288,54.778541677563695
289,54.770038474996255
290,54.72031416302959
291,54.63278990439678
292,54.57145575722781
293,54.56178227461399
294,54.55756700012693
295,54.56466051178245
296,54.556666890517086
297,54.63448101782813
298,54.81665371214803
299,54.85740710699766
300,54.8054430597475
301,54.78760973113681
302,54.830125162820174
303,54.904900637867456
304,54.91305552794535
305,54.957048672239175
306,54.962569213099705
307,54.99197408382142
308,54.999027598787606
309,54.951697313056066
310,54.97934378398493
311,54.97130627209862
312,54.655673901047926
313,54.467285009158175
314,54.392363749940465
315,54.44021387965284
316,54.558392673587605
317,54.56221904762792
318,54.559686533127305
319,54.51981061408331
320,54.40303649979559
321,54.23935028888942
322,54.30206519073834
323,54.35322197798104
324,54.589675481689675
325,54.8909675063757
326,55.04321156446483
327,55.19651229317635
328,55.278843949636524
329,55.34613892589267
330,55.40002465154296
331,55.45898794485933
332,55.3916315098107
333,55.334309688135214
334,55.27105333183713
335,55.22537271868258
336,55.17500041071171
337,55.135372890662204
338,55.110573081583865
339,55.09946646058376
340,54.999367939418036
341,54.88506604591602
342,54.85553796175054
343,54.86392533365204
344,54.886593524114176
345,54.92100809000881
346,55.13148037799916
347,55.195450570502445
348,55.339146856772054
349,55.40877987163475
350,55.50757735379111
351,55.5724839211064
352,55.634713443641
353,55.643599999545216
354,55.68596074320636
355,55.77968675592645
356,56.11882513640162
357,56.34860809828273
358,56.44520303544378
359,56.502085113583085
360,56.530923740364145
361,56.64189329683516
362,56.68659953878088
363,56.694452772592214
364,56.67633952913522
365,56.65972677902075
366,56.653822770954534
367,56.65661000910955
368,56.675685231207915
369,56.7077772974427
370,56.6991854972221
371,56.69892322935098
372,56.73319219677665
373,56.64240170036751
374,56.53377812133571
375,56.445022303158154
376,56.55076782193168
377,56.597543212363504
378,56.81066487355301
379,56.867695115462745
380,56.890779675953176
381,57.10030996610254
382,57.51970035499126
383,57.69243216394389
384,57.74873497860338
385,57.87244050269454
386,58.17811233041913
387,58.46146943353937
388,59.20294467881435
389,59.533253613081904
390,60.04222353101894
391,60.449282316477614
392,61.441121899781386
393,62.61550642004372
394,63.4181738482846
395,64.5394277473041
396,65.19323236482953
397,65.67544772731999
398,65.71934668320074
399,65.68017643158608
400,65.65832275759965
401,65.47960400113323
402,65.85465937855889
403,66.87225405410659
404,68.50248750430819
405,70.61996659619372
406,72.30700539420967
407,71.43069454241586
408,69.1380287668083
409,65.03012249280866
410,61.291574903918814
411,57.24056824075861
412,53.414576133580844
413,49.600963356297825
414,47.83021943034074
415,46.363625309761
416,45.01966999230255
417,43.01779301407463
418,41.935351042245365
419,41.70410348294708
420,41.11407376545047
421,41.45248931786205
422,42.135239870750226
423,42.26684724354542
424,42.244415695186774
425,41.98929172133254
426,41.92968731604295
427,41.837319374920426
428,41.74126874599081
429,42.12239731607658
430,42.67119787704132
431,42.94188596334383
432,43.14712027648632
433,43.14418697024617
434,42.33615450298366
435,41.6606467668344
436,40.93239122620993
437,39.87119093634188
438,38.70107547541453
439,37.85384369794044
440,37.07567532802442
441,36.51995706458144
442,36.115261892488284
443,36.04628339437413
444,36.02690866512801
445,36.66961863445606
446,37.0779257084275
447,35.75886755702479
448,34.885679676008586
449,34.800441527410946
450,34.77055934154149
451,34.85442875456465
452,34.90207583486959
453,34.91776195598948
454,35.33371548926642
455,35.85449910536245
456,36.185037423465154
457,36.436969894524374
458,36.67222567609711
459,36.87504205863601
460,36.739268361018944
461,36.040438275582275
462,34.898599459790375
463,33.441581539196136
464,31.451051149267133
465,29.375096481019177
466,28.048751903482177
467,26.71093051484643
468,25.87926602843018
469,25.37836035229815
470,25.71527028186212
471,26.033587243406906
472,26.311216336692375
473,26.551178346424177
474,27.514865187092447
475,28.158100847859327
476,29.25102002272959
477,30.073273586138548
478,30.84858119384874
479,32.171529933535695
480,33.31990276467049
481,34.78066005262953
482,35.84046506624727
483,36.81242560932107
484,36.88611624548888
485,36.459844854239535
486,36.23130579684964
487,36.05705066566518
488,35.54535249526638
489,34.99253441701164
490,34.708530677858434
491,34.47573879474026
492,34.35036782303895
493,34.29382698813753
494,34.414074851185894
495,34.75452080196531
496,35.39462114265082
497,36.178359227074125
498,37.80789924911156
499,39.13156139946727
500,40.72969483942446
501,41.956943522474525
502,43.282466685559655
503,44.620931184145604
504,46.013373208774794
505,46.875097082114976
506,47.769947774403704
507,48.86864150239493
508,49.71986187544945
509,49.609753117037094
510,49.38882724055337
511,49.05245867664464
512,48.88801942517534
513,48.747407992456196
514,48.46448978890932
515,48.25192554820153
516,48.057234739417055
517,47.68901733258488
518,47.537307127158805
519,47.39728799407587
520,47.41026119902953
521,47.7594844041591
522,48.20721752897103
523,49.73715531350759
524,51.23185235557277
525,53.235879941203905
526,54.56137874721965
527,56.151079604522046
528,56.96967891132569
529,59.385336020268106
530,62.264903172836476
531,63.94520843432846
532,67.7635063057073
533,71.54077835096709
534,74.8505952226589
535,77.1667612947592
536,78.6521809374356
537,79.1787313663555
538,77.2852734692639
539,74.90667570824316
540,74.27613619953522
541,73.14161875526784
542,71.74133732918553
543,71.18283027100645
544,69.39997747617177
545,67.01637523332555
546,65.03797543521013
547,63.219621451808166
548,61.62486367211011
549,60.97127883616702
550,60.71366449201119
551,61.61616316448001
552,62.59420023658418
553,62.62393155640284
554,63.962496032391485
555,65.86341968815614
556,66.6481206957654
557,68.52296386956706
558,69.30644646287885
559,69.72286420563672
560,70.05743503007997
561,70.24742905447195
562,69.84884689353918
563,69.93452926033096
564,69.8468760097074
565,69.61570420482114
566,69.56134510080565
567,69.33064826285981
568,68.64757617562903
569,68.2583394200619
570,67.80948319267773
571,67.4935874401279
572,67.05203524467501
573,66.72034234535971
574,66.34543079201019
575,66.02020856281662
576,65.87406641413327
577,65.69775623197269
578,65.63169822789898
579,65.50498816957045
580,65.34984487003972
581,65.22233306860372
582,65.09878766046003
583,64.88425206814826
584,64.24051925794696
585,63.96032141418977
586,63.80613882566781
587,64.03839223405271
588,63.938710070112855
589,63.73627229712884
590,63.54860039493388
591,63.45496143788971
592,63.21459833380263
593,63.0684525605599
594,62.97893335051583
595,62.89274517247325
596,62.78849137685096
597,62.66705737356403
598,62.96628750467602
599,63.24558936436116
600,63.46235972405262
601,63.97393591082694
602,64.24245247847882
603,64.45247947481289
604,64.7353060165122
605,64.84038404134813
606,64.919810438188
607,64.96901564656599
608,65.0553155502778
609,65.10617292121509
610,65.18531713118348
611,65.16983571612899
612,64.82579898003918
613,64.69307861879203
614,64.69618927305187
615,64.67049580142698
616,64.61001105862172
617,64.56413041179971
618,64.80436292171176
619,64.92791093453653
620,64.98630173322299
621,65.15747718759576
622,65.39789904728643
623,65.6236845015571
624,65.50968642351259
625,65.43689159370192
626,64.90554243125244
627,64.5598375711976
628,64.28680425578294
629,64.09504518172987
630,64.0681135772747
631,63.97140058191297
632,63.77875788006957
633,63.680611583632285
634,63.53175379819454
635,63.20250669728897
636,62.786818443168606
637,62.30963020114141
638,61.7519330149142
639,60.732533872039006
640,60.272002767445734
641,59.97954013856293
642,59.98417148385983
643,60.141834978637796
644,60.24216848739425
645,60.36242367464174
646,60.547199338953476
647,60.595745073474276
648,60.773521998666034
649,61.04222396689932
650,61.34171658283259
651,61.30241118327787
652,61.31849691986207
653,61.40083555020094
654,61.48489866954449
655,61.66659708663164
656,61.6937871294518
657,61.70011960256679
658,61.690306737784816
659,61.69994966885669
660,61.67106664410544
661,61.68616584735455
662,61.61492102285183
663,61.56146945122984
664,61.52991861193411
665,61.534449852875596
666,61.50905627150862
667,61.467375397688194
668,61.50042779581417
669,61.5262322956685
670,61.49072338762198
671,61.45167743382154
672,61.473127770287654
673,61.357654812971916
674,61.3340876517451
675,61.2999199675515
676,61.29505638504337
677,61.31879534491647
678,61.219035706947004
679,61.034112456543355
680,60.86461450931041
681,60.69205457989257
682,60.46011213406238
683,60.037962871155784
684,59.63783647003163
685,59.007015224717634
686,58.53847334654982
687,57.921433650000914
688,57.40548085225171
689,57.164254183584546
690,57.040802532335164
691,56.952470172888056
692,56.94403075090923
693,56.970443988632304
694,57.03277875577844
695,57.503558921863714
696,57.6888204898771
697,58.03643407987892
698,58.146579061787406
699,58.18916115707324
700,58.21162355011494
701,58.22352617697489
702,58.26261901247448
703,58.31262951522136
704,58.32570492185722
705,58.36377370736686
706,58.407963631691814
707,58.434350647956165
708,58.434116722886465
709,58.40087697047358
710,58.44701608901509
711,58.488912349098676
712,58.579138863104866
713,58.59113323615456
714,58.67546441006026
715,58.82883375907012
716,59.112988811892976
717,59.66664053343462
718,59.92041006946491
719,59.965108087380074
720,60.707640004331175
721,60.69045634501021
722,60.596589541375096
723,60.54044389466672
724,60.49724724879391
725,60.469169847576325
726,60.456577454156054
727,60.435765734009856
728,60.40848591512271
729,60.37607467378996
730,60.35964235782713
731,60.37165809879091
732,60.39777917094568
733,60.46663915511227
734,60.747338586220515
735,60.83862334986746
736,60.94084486656284
737,61.06529620595544
738,61.80295929376769
739,62.6106874335865
740,62.875485651610035
741,62.95172554782929
742,63.054995925899505
743,62.79798107078177
744,63.12263322900495
745,63.446105548631145
746,63.31887000439529
747,62.831980498162416
748,63.13818148207832
749,62.84165504026189
750,63.136125005426315
751,61.99778756150487
752,61.974862436487584
753,62.30852304650124
754,61.80842424048475
755,61.78930132930249
756,63.0216490354313
757,63.753933163305014
758,64.86047893017113
759,66.70493634011117
760,67.65274052572832
761,67.3996612775386
762,67.4803587541773
763,66.95744587894964
764,65.97029640905627
765,65.1503658369897
766,64.82360207637119
767,64.66927958789688
768,64.84759425482305
769,65.00348945727423
770,64.94908317991454
771,64.93428322158667
772,64.75238511682413
773,64.28696725517543
774,61.50855209285261
775,58.54890463338356
776,55.95536303007094
777,53.77300416659052
778,51.782331482067406
779,49.46924661992877
780,47.17178137768097
781,45.66621688598491
782,44.461148305250816
783,43.650692514944346
784,43.93116855237532
785,43.74190469253308
786,45.23583474548446
787,45.64879304989731
788,46.302965489333936
789,46.00307391367693
790,46.02687666626419
791,46.06498433816941
792,46.22272529134766
793,46.34324097308213
794,46.52739149494244
795,47.34877978317911
796,48.000681101775896
797,48.11955299453674
798,48.90653857603511
799,48.730060896040904
800,48.34682818449351
801,46.82094769964766
802,45.24238986739184
803,43.52513677419319
804,41.86788054129779
805,40.475265574477135
806,38.705469099744114
807,37.337565612304275
808,36.38050614744946
809,36.335499414886264
810,36.4966537860485
811,37.16016569715539
812,37.901128537406294
813,38.37273874769452
814,38.8692624576264
815,39.71201133405797
816,40.54383367904509
817,40.699628246344794
818,40.962590404844654
819,41.29002297177995
820,41.158744281601074
821,40.77686147943735
822,39.717371712273476
823,39.34664014247721
824,38.87432611510803
825,38.01946967514786
826,35.86345167967586
827,33.90736874088055
828,31.677379782529037
829,30.23200156885699
830,28.959151360025594
831,28.23508109922285
832,27.698160236565
833,27.579086047193286
834,28.05710821045481
835,28.474599205678842
836,28.95148941204855
837,29.741643340422733
838,30.44832932396706
839,31.04582793837915
840,32.22382099148382
841,34.331328792122875
842,36.96794808338195
843,38.62743121279086
844,40.2422814342063
845,41.20829478524836
846,42.66725053882294
847,42.56408205352618
848,42.00100546657531
849,40.87361991275182
850,40.07017784768061
851,39.03008139038223
852,37.70051410949855
853,36.888206070661376
854,36.36434387785178
855,35.46525888204557
856,35.01762811601153
857,34.844708773910185
858,34.610482418596575
859,34.531970471535445
860,35.29557418685106
861,36.65121927892179
862,37.55965587345534
863,39.31054150731841
864,41.27910429724812
865,43.858652871657966
866,45.83818259711632
867,47.06451289185093
868,48.04420922835528
869,49.12330534894486
870,50.304059050489656
871,51.5236192431278
872,52.44604234795971
873,53.528500453148396
874,53.7206124377076
875,54.4915449688578
876,54.393252475378944
877,54.11107827819947
878,53.32618636837128
879,52.460983782674106
880,51.55779652680916
881,50.89759836609406
882,50.343524138029004
883,49.849659466730465
884,49.365154511252655
885,48.960327142999304
886,48.454205004475476
887,48.002743728732845
888,48.549486575678706
889,49.90117557056737
890,50.70029571012613
891,52.25227141082036
892,54.659900716486156
893,57.47804832668331
894,60.8373023262685
895,61.99563258886762
896,64.60126219612727
897,68.60865244629012
898,72.57604652053251
899,75.04415777328342
900,75.35120082167175
901,74.17708189851648
902,73.37973650001062
903,73.04996881904869
904,72.39675168809573
905,70.96190004731355
