,angle
0,14.75676148903709
1,14.608393482156114
2,14.489294496795475
3,14.377145375865172
4,14.183450056387214
5,13.988039644344617
6,13.833698147691063
7,13.557819405560897
8,13.163370091085183
9,12.827706631953523
10,12.64164408658362
11,12.619976478875582
12,12.623985051073204
13,12.65182835329561
14,12.693763568914207
15,12.719470627048098
16,12.748903082475417
17,12.80752772204377
18,12.857873954867463
19,12.879725673276717
20,12.874531023284273
21,12.87166438781309
22,12.882784362072911
23,12.892781272874549
24,12.932284244083153
25,13.075194082080465
26,13.103234559645822
27,13.130935717884848
28,13.129482186945406
29,13.117228066230869
30,13.129998149589314
31,13.208026072232762
32,13.143204644474466
33,13.124180701334838
34,13.165027351589659
35,13.181598679128195
36,13.112558354781624
37,12.76226822750619
38,12.232927457325392
39,12.101495822849692
40,11.955293241199154
41,11.894536595046993
42,11.795539713669713
43,11.782636067538272
44,11.767908669267078
45,11.785361713076817
46,11.769643196270255
47,11.791372551477963
48,11.821756961333541
49,11.830576396111855
50,11.87029953309828
51,11.871625508246506
52,11.868481075764093
53,11.82829625857848
54,11.80679639243842
55,11.794809590885345
56,11.792798388466117
57,11.789391540109493
58,11.78727039023673
59,11.79439139210349
60,11.80268159990632
61,11.822362688357849
62,11.821889166412399
63,11.82902125542901
64,11.844873969429335
65,11.840384125714369
66,11.829257019743004
67,11.855780043065213
68,11.849784706446458
69,11.813671619732556
70,11.759094827511488
71,11.724971853662133
72,11.696496290682644
73,11.712779537936404
74,11.719817434058971
75,11.730684864546328
76,11.747801046662875
77,11.776271611464367
78,11.753203908377905
79,11.722739135419099
80,11.682733854461617
81,11.572164777497163
82,11.49087663851985
83,11.461132879221847
84,11.419605180678575
85,11.396203108778293
86,11.391664630883433
87,11.426223691549202
88,11.48054803090446
89,11.548900017288231
90,11.651139762643071
91,11.69415421724135
92,11.730589327755965
93,11.83281018911482
94,11.941790112934854
95,12.047207310725103
96,12.177705668391955
97,12.239915376735032
98,12.313292018789191
99,12.411361444361939
100,12.482540349004344
101,12.576704355058487
102,12.60372994715087
103,12.551882941573412
104,12.498727740309524
105,12.517026108404075
106,12.528780734841519
107,12.342812005964285
108,12.340956820318102
109,12.344753083185092
110,12.398223389873321
111,12.408127161996415
112,12.451938046599025
113,12.489850129262086
114,12.5009824507312
115,12.50604914515395
116,12.520828486689446
117,12.534113981079354
118,12.531408186640894
119,12.522673043678196
120,12.573216130389854
121,12.586531978725317
122,12.593122501757675
123,12.595549951550716
124,12.599151063878661
125,12.602650100273081
126,12.609470364898609
127,12.630476895505948
128,12.649120648995957
129,12.659417239186045
130,12.627153747019213
131,12.594346160702692
132,12.509326938006978
133,12.430054055016232
134,12.369991027265977
135,12.329849036478835
136,12.215986639547815
137,12.208051276092599
138,12.194007885950795
139,12.280072413352473
140,12.385629306211884
141,12.3883608646181
142,12.484829603904561
143,12.504310279022384
144,12.463790677578398
145,12.452790518326463
146,12.47116363244646
147,12.572027117023312
148,12.727282822706954
149,12.875362877635636
150,13.16594355178761
151,13.403908656707841
152,13.535304175955362
153,13.945616813323761
154,14.461860865806797
155,14.913179434326308
156,15.352659076611209
157,15.710645756560142
158,15.980823408124307
159,15.986393395781187
160,16.15023725760709
161,16.29005523798
162,16.247990187425085
163,16.164517044302404
164,16.267159982468765
165,16.23017639893026
166,15.799897476500815
167,15.783923733363393
168,15.654725190367305
169,15.33682252047699
170,15.377650017793822
171,15.54378939868797
172,15.66484994072923
173,15.758159513353329
174,15.749503553810783
175,15.674496498594028
176,15.482024487536469
177,15.257524756596682
178,15.21530259778274
179,15.373065859804276
180,15.434915126393323
181,15.525697408128035
182,15.539980215364249
183,15.936988129716557
184,16.427767810392798
185,16.51442960233189
186,16.606884801570406
187,16.70813570843895
188,16.75850976118842
189,16.694464409362855
190,16.64164574382426
191,16.622939924069453
192,16.585333641092543
193,16.65247702639586
194,16.644605277361464
195,16.389302694685558
196,16.276593501665754
197,16.0270054274724
198,15.5828595528651
199,15.23443668144897
200,15.108048967311147
201,14.719135862414745
202,14.576910884246901
203,14.131863508154904
204,14.018506446953657
205,13.959160373790372
206,14.106338969161293
207,14.442942691825309
208,14.619467455686896
209,15.191229296259937
210,15.763845520947582
211,15.82553454149378
212,15.89729708938504
213,16.04351344018679
214,16.136606039753232
215,16.256738878310937
216,16.793030548244992
217,16.952451770307114
218,16.935583082029297
219,16.897622602013513
220,16.84023075974757
221,16.804139597864364
222,16.733984467753917
223,16.70137264955407
224,16.653459138449083
225,16.50196317049102
226,16.464083869559435
227,16.452405278190664
228,16.09574130227074
229,15.938941884859089
230,15.955630349895197
231,15.858399101488889
232,15.428910727606878
233,15.227490841745075
234,14.786749401940147
235,14.242181665169465
236,13.545262099717757
237,13.371088867375654
238,13.430235060447654
239,14.125897943954124
240,14.819038965360805
241,15.126546117070017
242,15.432308269109708
243,15.497366270629499
244,15.625819624247239
245,15.692270071726785
246,15.732860169252366
247,15.914232359973685
248,16.011137578843346
249,15.960899137634946
250,15.884643557867669
251,15.848706085744439
252,15.803258575081122
253,15.750001690243598
254,15.809851699534228
255,15.856211639947547
256,15.875536687089681
257,15.876578798358025
258,15.860836750174116
259,15.85442117557613
260,15.800927813907897
261,15.723274226225968
262,15.645134194450133
263,15.587176932195783
264,15.517671181893064
265,15.536952525184446
266,15.543198084029859
267,15.543269099442396
268,15.392984616238934
269,15.327153736769503
270,15.295637843790702
271,15.248224514383113
272,15.322069760017879
273,15.061954947306873
274,15.239501399659563
275,15.162970021513118
276,15.160708444360129
277,14.992136135709593
278,14.939201042195053
279,14.891844760126226
280,14.7143134525592
281,14.48713221291811
282,14.067271031402623
283,13.640203015267126
284,13.495549131197327
285,13.477605541395477
286,13.426389573359076
287,13.390222145634985
288,13.272165681126726
289,13.24560598057299
290,13.282326789731004
291,13.356568356041839
292,13.45089008740248
293,13.5649918374733
294,13.65659184357368
295,13.719049851629856
296,13.75214401888901
297,13.909913927184933
298,14.082244114595547
299,14.20561959162621
300,14.297437518654291
301,14.260128111982663
302,14.286538251977895
303,14.096230133130211
304,13.95760237802034
305,13.86690260263657
306,13.738131982295497
307,13.621999265976541
308,13.600363476456216
309,13.457024867171826
310,13.403731474582663
311,13.48075171673719
312,13.628724059943632
313,13.771178582276738
314,14.172660753100228
315,14.324990252644433
316,14.416605163311093
317,14.502180544519112
318,14.590628464144208
319,14.644129036692224
320,14.682681109641893
321,14.72523071199058
322,14.496775290849012
323,13.941286940871972
324,13.944063322531292
325,13.861470646020045
326,13.849411190839772
327,13.850012645925187
328,13.849987571488251
329,13.824852046392213
330,13.891554884865148
331,14.371485103232693
332,14.817677431511955
333,15.030544341953922
334,15.131219503613709
335,15.09149523866793
336,14.990964418831041
337,14.811823838917812
338,14.746280104335039
339,14.68660179731109
340,14.631872397322617
341,14.479289554748648
342,14.33502920347068
343,14.280679424044378
344,14.201357804862305
345,14.012677874597253
346,13.728873403116435
347,13.61676459423262
348,13.53062529305028
349,13.390925809743269
350,12.96489548021063
351,12.87930266760637
352,12.905678312994896
353,12.962339178492481
354,13.062379856182746
355,13.177438309678006
356,13.280586816647059
357,13.320851193241946
358,13.354200748581624
359,13.41561944519885
360,13.535043514222936
361,13.60269433843641
362,13.41700261798392
363,13.40244637697015
364,13.099443036688982
365,13.085111880017326
366,13.210469427694
367,13.555604202829793
368,13.844075964345945
369,13.885163239127648
370,13.96715246671216
371,13.980655663758688
372,14.020750729041662
373,14.052204159825422
374,13.594712061471597
375,12.89241980146577
376,12.692932614206052
377,12.698828320946156
378,12.674233565168088
379,12.662359877797142
380,12.608676070658882
381,12.613400652063671
382,12.5502404838063
383,13.155837332164266
384,13.297050378567862
385,13.82651132856355
386,14.68794101832463
387,14.760798677774114
388,15.40333463018181
389,15.575245064014146
390,15.546409666362603
391,15.58287196381233
392,15.612178100727906
393,15.520520154590093
394,15.135079972793088
395,14.36110244412967
396,13.927993694087464
397,13.662154055324434
398,13.370052004845622
399,13.409556821230929
400,13.4313116415965
401,13.609843780231357
402,13.63604088147958
403,13.664584339886934
404,13.761975356428408
405,13.708916509584693
406,13.645785760880818
407,13.551684485905897
408,13.516249580683462
409,13.514779282706506
410,13.513434612035324
411,13.503685166976693
412,13.462998659158139
413,13.403239533719418
414,13.316253424272578
415,13.188505211869037
416,13.1818914365299
417,13.185817103489683
418,13.15060039579002
419,13.12695458628059
420,13.096270338356055
421,13.09378465570599
422,13.048201252925598
423,13.062593766279845
424,13.147275240164038
425,13.192436368685694
426,13.254914299319832
427,13.219250985649369
428,13.171371341046054
429,13.088559493346194
430,12.977059616007889
431,12.667679173721332
432,12.711100774996138
433,12.867141890887254
434,12.920667709980581
435,12.964416415287495
436,12.965233261129226
437,12.970857672909
438,12.955630726203447
439,12.867407463103447
440,12.557882554867296
441,12.407004905011329
442,12.407257611767962
443,12.419955287968087
444,12.523178452093132
445,12.575296410358124
446,12.61833013120642
447,12.661792130021267
448,12.722448725238953
449,12.639420309191733
450,12.549565294209481
451,12.52248731895906
452,12.463114512329676
453,12.436608917093718
454,12.409451834931806
455,12.427181785371467
456,12.393697445682456
457,12.36887064156722
458,12.411533451703072
459,12.619869086411466
460,12.689773742992909
461,12.701891336875288
462,12.77761165999283
463,12.833056234511444
464,12.976913833040719
465,13.216850323484985
466,13.335490766163895
467,13.383261419494579
468,12.883544134320047
469,12.716592740354997
470,12.385665316034926
471,12.304616776874417
472,12.289070154313716
473,12.264588104072748
474,12.232243165593536
475,12.353208363773545
476,12.108488000177308
477,11.836826121815914
478,11.676097700223245
479,11.452376110515326
480,11.415443998781697
481,11.302071634016418
482,11.080627100227774
483,11.088695766116391
484,11.336888005038308
485,11.190985791434844
486,11.214794265783397
487,11.986135582169444
488,12.85917607222989
489,13.069712320144948
490,12.977602768621562
491,12.94154775672965
492,12.67257431793882
493,12.562098877433687
494,12.479191578299567
495,12.55501747817399
496,12.727267054173678
497,12.793813992274304
498,12.923054612008173
499,13.113161087979387
500,13.097587229821704
501,12.971220304892054
502,12.956903163252592
503,12.989047178309928
504,12.894703515631571
505,12.512346433972859
506,12.583563971829472
507,12.579807428531698
508,12.640496343751174
509,12.77359835410101
510,13.609493030934901
511,14.070779574820838
512,14.096333138600537
513,14.163743437029805
514,14.324815423178748
515,14.500642053423936
516,14.618806236280449
517,14.752285727943372
518,14.749687719017318
519,14.880980679610147
520,15.074565513176559
521,15.09515688705844
522,15.124935554661866
523,15.256401432018228
524,15.154024612324376
525,15.095335318985429
526,15.583517926945218
527,15.646396712830361
528,15.289013814853877
529,15.091740184014872
530,14.997004830629416
531,14.939967535257235
532,14.918424323409186
533,14.957599439420648
534,14.979298720338827
535,15.14454389143
536,15.40028935059746
537,15.505454506111963
538,15.572104104103534
539,15.712695504342907
540,15.708858670202758
541,15.797157734165838
542,15.94077887747632
543,15.975315718827938
544,15.970878049369752
545,15.936012825839173
546,15.983780005579833
547,15.881269948305988
548,15.830524452454062
549,15.752354902739501
550,15.600399087605691
551,15.384913774091016
552,15.309831662926927
553,15.458110512301802
554,15.464521430021039
555,15.385173377631704
556,15.33340294677382
557,14.99920264830775
558,14.846238683977308
559,14.77505209645541
560,14.937820179774283
561,14.765580158076622
562,14.864972696918825
563,14.865643091498416
564,14.965064906252872
565,14.929428047173813
566,14.879453114454414
567,15.019247635308744
568,15.141556549298544
569,14.941002909477707
570,14.973658508362975
571,14.784323672647803
572,14.938990684071653
573,14.666760521133964
574,14.531832707102994
575,14.25407607392687
576,13.837545923186495
577,13.514436164518257
578,13.466203310784518
579,13.565314692818934
580,12.978881262955738
581,14.16030569184725
582,29.125995223868642
583,17.5095777480135
584,16.298028124592445
585,15.831341169188772
586,15.005594773174387
587,14.073585933785504
588,13.624771723741912
589,13.264639305212693
590,12.548019454213652
591,12.612643011763954
592,11.58032479958431
593,11.520907146177219
594,11.711635018160317
595,12.762517228196554
596,13.119347177395168
597,14.067963825917358
598,15.630514599989711
599,16.15493922421084
600,15.745402327818052
601,15.507596216698683
602,15.332575321973623
603,15.30848470864542
604,14.716556762823123
605,14.326018242226647
606,13.417214650386736
607,13.078546790087316
608,12.814166323694186
609,12.668463901699393
610,12.475683204896082
611,12.523994979657102
612,12.587823221126726
613,12.78157328625331
614,13.417531187012544
615,14.349323090024562
616,14.63495924573572
617,14.695883120790732
618,14.932893472893612
619,15.393161830305086
620,15.257336538812265
621,15.213522117084999
622,15.145888310689774
623,15.050086268924959
624,15.18310268915344
625,14.966848769277393
626,14.558218247227607
627,14.295341024753979
628,14.159749057591293
629,14.050648261208417
630,13.929031787786116
631,13.688123864102163
632,13.485095015131394
633,13.472695664353711
634,13.649956843123974
635,13.669928872908523
636,13.562791898667255
637,13.913217390874824
638,13.954112285699338
639,14.782635342929922
640,15.077514893196566
641,15.217126065283765
642,15.309267672935315
643,15.413638407893242
644,15.172050541306323
645,14.862779576290352
646,14.704403893055437
647,14.568949058365444
648,14.40283582129995
649,14.081618513745646
650,13.628829103759431
651,13.633913318909226
652,13.681017375426277
653,13.407795176575709
654,13.115982770450838
655,12.935275076851886
656,12.83728051463741
657,12.531028175199332
658,12.416184413840663
659,12.354317527772277
660,12.329681000691142
661,12.353129129115395
662,12.388281983041745
663,12.338886956864412
664,12.316672433600026
665,12.38933962105344
666,12.532299263106632
667,12.5710015786986
668,12.826328141656283
669,13.32036032933492
670,13.514628684096808
671,13.581933191486774
672,13.581699642170653
673,13.68939511046092
674,13.884610501955684
675,14.007058601098693
676,14.340548429090045
677,14.511110550881485
678,14.339910575914802
679,14.23552481273746
680,14.075191918928157
681,13.930408556361996
682,13.837254863033587
683,13.871304146456241
684,14.067463754411119
685,14.294179162061956
686,14.284061985991457
687,14.317878102197387
688,14.482944194892168
689,14.631677201723496
690,14.697948402886386
691,14.692394837102835
692,14.695591273081966
693,14.738931391427247
694,14.83255821309357
695,14.904681823154485
696,14.976667607038248
697,14.964143040044307
698,15.03989887740093
699,15.010160887472251
700,14.717955507916969
701,14.75810301368148
702,14.717544627329447
703,14.487642679805859
704,14.307784263431252
705,14.27239730336978
706,14.243254035115687
707,14.428419988757724
708,14.477830113596129
709,14.531225890361673
710,14.495167679957795
711,14.407026477308145
712,14.458453355686627
713,14.56669400975087
714,14.47843948461617
715,14.464060489114198
716,14.402970800655746
717,14.411394953042763
718,14.454211367270762
719,14.41511129108818
720,14.400135838900985
721,14.391561923805792
722,14.39442937209953
723,14.440288290307977
724,14.453876149603076
725,14.529772957469653
726,14.517917138711848
727,14.496153923621826
728,14.487893740454306
729,14.464771037541169
730,14.448123939871783
731,14.436683637981682
732,14.438341776847807
733,14.45674281171535
734,14.464631383566912
735,14.491955682444388
736,14.526352208225676
737,14.526446329520049
738,14.55059551319013
739,14.560948595371967
740,14.548778635573742
741,14.534014865225366
742,14.521687027310918
743,14.522703329141713
744,14.577700316021224
745,14.627156226793186
746,14.659392449638391
747,14.709963530938829
748,14.733330003880823
749,14.75899103248138
750,14.761315312829964
751,14.758322596557996
752,14.754403668635153
753,14.723977712735882
754,14.698454292343591
755,14.61739170207018
756,14.699159737861992
757,14.741705251351997
758,14.794109737531315
759,14.805675550356698
760,14.84742853658357
761,14.956815224695271
762,14.988246111952911
763,15.054386220121287
764,15.12650736448413
765,15.131671281768282
766,15.15054166455568
767,15.155015640026678
768,15.154426763447146
769,15.163559310118545
770,15.165953159084705
771,15.159618430037316
772,15.15885234673037
773,15.15976276546211
774,15.168534622302687
775,15.164705107419827
776,15.148270683617296
777,15.212458592594405
778,15.186960044407146
779,15.242987834094356
780,15.230266898178021
781,15.218469959506185
782,15.229664335655821
783,15.191953215486405
784,15.140422641893416
785,15.086333627056158
786,15.048518143147593
787,15.031429817392256
788,14.95260022738765
789,14.905464925616732
790,14.847523050966208
791,14.780593369653111
792,14.618798597754184
793,14.51147171354868
794,14.468763120104205
795,14.455337065928257
796,14.451848879877321
797,14.455795173612211
798,14.464060243833142
799,14.474249122700977
800,14.474042075653305
801,14.463348511865709
802,14.465274666761477
803,14.456575867021277
804,14.433994855432747
805,14.462415859771724
806,14.464506527172635
807,14.467149157075792
808,14.440891539305033
809,14.398675185048397
810,14.341392378249877
811,14.259541554157211
812,14.181377656137803
813,14.174740645357089
814,14.159777496151486
815,14.165159142889387
816,14.102577907113583
817,14.050202512163475
818,14.026600284210469
819,14.005982246664328
820,14.003463451806391
821,14.041290032663639
822,14.11583702820862
823,14.129437778736792
824,14.169065289435617
825,14.413536847028613
826,14.530552832907267
827,14.76796449713113
828,14.835478405582185
829,14.99481216660943
830,15.010135404012459
831,14.976278905555683
832,14.883361351220978
833,14.45311230851049
834,14.131812561953454
835,13.925834515459
836,13.809652016884462
837,13.834067622971954
838,13.87705951695685
839,13.923304297609334
840,13.941060481777729
841,13.966113015803867
842,13.975775755874551
843,13.985441029429795
844,14.00083007509859
845,14.039027505169065
846,14.05228285128539
847,14.338520016192533
848,14.709085829168274
849,15.120622183826077
850,15.371812482780758
851,15.604815424613646
852,15.672360840932333
853,15.66562210379862
854,15.662176608734574
855,15.630358146833487
856,15.627165301425332
857,15.612875246960801
858,15.835509377929178
859,15.944199057368136
860,15.993318941574232
861,16.144572649606527
862,16.30687623937719
863,16.30611886080697
864,16.16948634314053
865,16.229279730901297
866,16.019893513158852
867,15.838105965827854
868,15.66305554873026
869,15.623031611618384
870,15.764507936815901
871,15.729522771717619
872,15.706854426268897
873,15.72020571791653
874,15.764084335709942
875,15.689003960733848
876,15.684747587399897
877,15.690861517094145
878,15.431990052730454
879,15.059684705633513
880,15.061802951808703
