,angle
0,37.57552836557056
1,43.883365270003594
2,54.89767894435831
3,66.72240088840529
4,78.43839979605421
5,84.60473122179955
6,90.0702268950724
7,92.68305272118609
8,94.54243984113344
9,95.19370017461065
10,96.2604785037528
11,97.54358005810573
12,98.40978625718793
13,98.33050481996246
14,98.05058317296503
15,97.7673228713779
16,97.47406996603138
17,97.20475056486988
18,97.35826536854118
19,98.16297722944402
20,98.67310802851496
21,99.00186046683498
22,99.20566414456633
23,99.5429596716535
24,99.7771015093887
25,100.1247072436153
26,100.96797744259158
27,101.64596117601796
28,102.28390734311817
29,102.9458567516114
30,103.24286603352604
31,103.1928511024213
32,103.17708221282462
33,103.26451425180403
34,103.19973789317349
35,103.28518569960876
36,103.38691864101568
37,103.47538217791003
38,103.42657224905825
39,103.49785118217316
40,103.51274725751217
41,103.63842092519981
42,103.3658337090411
43,103.4061747630642
44,103.45399148997821
45,103.3184466764611
46,103.37570039258827
47,103.3347955945159
48,103.4230517945886
49,104.24201733834907
50,104.91892630380747
51,105.331888860475
52,105.16170997697627
53,104.86210569759983
54,104.87112177375188
55,104.7916741238728
56,104.71434292171696
57,104.55262984848646
58,104.40879616634116
59,104.36908213948637
60,104.52917923931328
61,104.55895780805822
62,104.62023481952723
63,104.65822952463836
64,104.66534234880582
65,104.73280470676424
66,104.80670885755859
67,104.8282229156597
68,104.8182563197685
69,104.8106378633584
70,105.2805745138804
71,105.37591498040715
72,105.67757929273262
73,105.72905194835083
74,105.67757468739238
75,105.68845780011038
76,105.70132933124697
77,105.7365373123612
78,105.8747930642135
79,105.84280100779259
80,105.7524361457265
81,105.68656456027854
82,105.64618916484035
83,105.63712103207928
84,105.91746107979459
85,105.86208457733524
86,106.01683562542776
87,105.99793758826492
88,105.99158723367046
89,106.12860239060316
90,106.10285507647188
91,106.04289267527412
92,105.99905590834481
93,105.92641019958631
94,106.08165845932082
95,106.15366006584864
96,105.81730803980989
97,105.53927366919724
98,105.487438822223
99,105.34046836520903
100,105.25276146009078
101,105.13815621237254
102,105.10417646640468
103,104.97470522643869
104,104.92618844232751
105,104.92917313684859
106,104.93173098520474
107,104.95362503997185
108,104.99727859488767
109,105.4702786268725
110,106.38728952588635
111,106.78738779138344
112,106.86600378070678
113,107.0081189728707
114,106.81215052465437
115,105.31591937673262
116,100.3777931621509
117,91.24595132792832
118,79.04206791575835
119,64.18852844102544
120,48.528928938788546
121,39.07092298334888
122,31.358102108023683
123,29.513181817167784
124,27.709250900894425
125,29.70607182833858
126,30.063885869990234
127,28.16114674636344
128,27.53962748023927
129,26.620267098018072
130,25.71931569723164
131,24.938109230387866
132,24.608115972940613
133,25.20510557112144
134,25.29295602888494
135,25.57377372387381
136,25.91784715368773
137,26.17348690579703
138,26.49150367023102
139,26.699884951784718
140,27.3275480183427
141,27.526201150186107
142,27.520245749376365
143,27.424861594614775
144,27.11014881718679
145,26.990404503699605
146,26.927595505443353
147,26.935933120782092
148,27.023578169303676
149,27.23216503448109
150,27.234139238345
151,27.161616536921706
152,27.25345819083845
153,27.285567453639732
154,27.350465805253748
155,27.41398868266738
156,27.511675767175568
157,27.4195254110047
158,27.295792042266065
159,26.912832217968077
160,26.658430567128633
161,26.428087584155964
162,26.2361948133505
163,26.107346217896744
164,25.98098869091076
165,25.927863590453534
166,25.951148194236538
167,25.993305061882847
168,26.069715729838414
169,26.14036665598397
170,26.261471295322863
171,26.281207787476735
172,26.36340419204158
173,26.464880961968436
174,26.5808817579914
175,26.694334395590104
176,26.908843786688248
177,27.131253970988105
178,27.38156797083401
179,27.66050184182193
180,27.781631926329474
181,28.10841952885415
182,28.386656482831327
183,28.535051482621018
184,28.907173694683042
185,29.193805405112155
186,29.44014557562002
187,29.81362073181087
188,30.214360880696667
189,30.602880071907748
190,30.833561696241027
191,31.153796709677227
192,31.296686311190413
193,31.423506558732004
194,31.453515031294515
195,31.76254534889898
196,31.96717102202217
197,32.20331997368576
198,32.43514102978449
199,32.73207229597376
200,32.98904804692459
201,33.11576135108773
202,33.158357146346845
203,33.21600094931154
204,33.183974267186485
205,33.17176256088086
206,33.15411503591447
207,33.06566839194631
208,33.030315925893895
209,32.9139839620755
210,32.87833853390194
211,32.81185030109103
212,32.784748329968224
213,32.76521938762962
214,32.619805928972596
215,32.49451460765187
216,32.44082616303833
217,32.486806064068965
218,32.44845363447729
219,32.452336131494526
220,32.417434620148924
221,32.37936869795572
222,32.31226859741135
223,32.300526473144345
224,32.25872007381621
225,32.32714341698715
226,32.33555843114648
227,32.274678207966396
228,32.25291199671439
229,32.28130841749191
230,32.32575496682135
231,32.344059352746555
232,32.34936468504008
233,32.35160474431092
234,32.3547270449735
235,32.43123889699218
236,32.321736148419724
237,32.27725210765
238,32.74763346144711
239,32.9527563380885
240,32.6430418271282
241,31.928342584222825
242,31.24368722234146
243,30.279510561738274
244,29.65706547449142
245,28.59590471105841
246,27.727127976564766
247,27.063864130629597
248,26.703815299905994
249,26.471569180780097
250,26.20999619243058
251,26.03074620282246
252,25.925030048398323
253,25.83682908948528
254,25.83893594201517
255,25.85449406142376
256,25.785602542394543
257,25.59658272624678
258,25.48167093095168
259,25.48927450825622
260,25.697542064758945
261,25.70394046938639
262,25.292183260236417
263,24.990576874207793
264,24.952416208424015
265,25.058808663338514
266,25.09037736578552
267,25.17915876031955
268,25.262720130762393
269,25.331980409564377
270,25.418514067337558
271,25.470619653832355
272,25.482248149502883
273,25.573222415062105
274,25.664331478625137
275,25.762046959130274
276,26.10826541723459
277,26.373593390582062
278,26.670775774580854
279,26.838756382405396
280,26.961649141993895
281,26.989359027020342
282,27.053865143843108
283,27.059954416438714
284,27.057671627251786
285,26.937138685793084
286,26.917693536837454
287,26.88621838107525
288,27.165084806664762
289,27.388751096720295
290,27.525273175573147
291,27.64145306169102
292,27.737906387629337
293,28.00350720619318
294,28.131497161415002
295,28.192120169317917
296,28.333230867490798
297,28.47014192242201
298,28.64131942376271
299,28.830827290440176
300,29.02316982795643
301,29.05445892556032
302,28.95220296673791
303,28.63891774934355
304,28.304950166390125
305,27.946648659834217
306,27.68941403039003
307,27.223037449782886
308,26.466557201627833
309,25.739427644007904
310,25.095765506586975
311,24.72412577852665
312,24.209688641977753
313,23.682379376457458
314,23.0800622655203
315,22.290427532406262
316,22.092771454270135
317,21.528850498407902
318,21.002230852834273
319,20.82364526080687
320,20.878157134811627
321,20.988624581544318
322,21.18241513738034
323,21.21034572740029
324,21.104636475873676
325,21.14202535884848
326,21.162296384274946
327,20.929685973374905
328,20.730949866055486
329,20.684556680330395
330,20.557135778056242
331,20.449892220880535
332,20.58521668094292
333,21.14762758862489
334,22.20277568097858
335,23.121950520473785
336,23.335150647760294
337,23.68572316011544
338,24.371943858116847
339,24.942968101464643
340,25.423322132854118
341,25.95914873449612
342,26.61667923355048
343,27.410442659754857
344,28.155518839658463
345,28.744895502913348
346,29.135200912720173
347,29.77906589669681
348,30.487372872872015
349,30.73248036698511
350,30.822607148756735
351,30.802413175164844
352,30.89336175358352
353,30.794403400180098
354,30.888851817295524
355,30.98336330082695
356,30.86322705204424
357,30.797321374057084
358,30.64507518294389
359,30.58302492533055
360,30.856373323694864
361,31.20889360876225
362,31.39723203093346
363,31.5845558554161
364,31.70390546497491
365,31.768916187420043
366,31.903751499853193
367,31.97055250561546
368,32.026056667316126
369,32.055319635898385
370,32.078345093945416
371,32.06559192081117
372,31.816990379231886
373,31.67970349872254
374,31.58341467614563
375,31.526266960557606
376,31.450562589660436
377,31.40257348570459
378,31.363941464327155
379,31.296722620126236
380,31.201705245963176
381,31.13644578935693
382,31.12408364370436
383,31.152025284130424
384,31.155750765124772
385,31.184412443090157
386,31.18275544589675
387,31.191263929576124
388,31.19691158850512
389,31.154264589258204
390,31.166923364166227
391,31.237331926927627
392,31.322263346905416
393,31.419156408216686
394,31.42753927796184
395,31.374911169637336
396,31.43702329705668
397,31.38592319407244
398,31.339381767555654
399,31.195892889357793
400,31.111936961987606
401,31.020537523424007
402,30.891190665528775
403,30.896692860562812
404,30.31473021951701
405,29.907989432481063
406,29.597059986736344
407,29.413605242367485
408,29.22434660722158
409,28.998822052770816
410,28.680813334944062
411,28.535101490002308
412,28.231340252023283
413,27.789110559892272
414,27.62352463589429
415,27.39298397039892
416,27.22313589890257
417,27.00819716669927
418,26.68616509133049
419,26.405944039482296
420,26.22386162157932
421,25.906509183823204
422,26.010543787155353
423,26.02943603169513
424,26.09715159844428
425,26.215773417926908
426,26.270245619867694
427,26.512730616502026
428,26.606480188133453
429,26.682756307805015
430,26.884362075036464
431,27.094280206757
432,27.522029314204058
433,27.80240846199573
434,27.93206579434551
435,28.372538447545526
436,28.858923004180983
437,28.987461435877968
438,28.90931274855608
439,29.00490263131933
440,28.43284793388828
441,27.835821729349842
442,27.354559304111696
443,25.523649136795704
444,24.20449253303137
445,23.504577067467945
446,23.266493882497247
447,23.119481677052658
448,22.69374957977892
449,22.258841285065646
450,21.70335115122373
451,21.261669158136158
452,20.814829358558864
453,20.678357698012174
454,20.639279734222065
455,20.679743886516828
456,20.105254857337307
457,19.721552739640185
458,21.208458303353588
459,23.734774698519033
460,26.43277067244403
461,31.126301935272014
462,35.06075158456471
463,49.511360533243625
464,78.60347981749614
465,115.65535727486971
466,136.80790975658147
467,144.37628106626454
468,145.17328747047873
469,146.8130726461163
470,146.4510555273184
471,141.9374550215201
472,139.30341813705544
473,102.08823604606363
474,57.72597293269969
475,41.06005087794019
476,33.32737033429768
477,28.772184617212304
478,27.853085914038672
479,28.80113390584679
480,29.997211168609326
481,32.712234859202816
482,37.30141288300264
483,43.24433523909531
484,49.05806671779815
485,54.30121034745052
486,65.09333271846954
487,79.27407670111187
488,95.13220320558781
489,109.42197921108279
490,126.33335494337325
491,138.79974027345415
492,144.73182334172608
493,147.84134667275933
494,149.00679416691565
495,148.12483016646016
496,146.35600024859892
497,144.4617482721634
498,143.01295983096767
499,134.34150003866796
500,120.64994550956828
501,98.18959148808267
502,69.86906042376266
503,42.81956348007906
504,27.738593098237565
505,20.59532771422664
506,14.393635173574014
507,11.56764640589878
508,10.54551941225595
509,9.373702759659446
510,8.754820392733762
511,8.298660759154364
512,6.707175131465863
513,7.714531831160876
514,9.789184306831933
515,10.400420814186116
516,19.678977200833163
517,43.656087562874106
518,49.77698966962802
519,15.15046627072079
520,78.3249475956382
521,91.98219322519216
522,82.6064090382725
523,84.41989868498553
524,74.04247584912162
525,48.85705930415613
526,29.202901665921917
527,29.818088389708244
528,26.467582920157266
529,22.431673374041527
530,19.658943466611095
531,21.76114573679115
532,24.95132537398389
533,28.877021789934542
534,33.59609566184632
535,35.14607392717121
536,42.50172450678788
537,50.77381367813714
538,69.49847672332017
539,88.6493316060317
540,99.88109560415778
541,113.18153974192013
542,137.3019593684635
543,149.69117877916193
544,154.35980132917842
545,160.3272240600289
546,153.26427119223757
547,130.70772323041697
548,118.20615553659826
549,117.61045515760807
550,111.97388089537236
551,109.48297671950971
552,94.03267686883822
553,72.47678194151348
554,35.30321335156951
555,18.34949282945924
556,15.534155391681912
557,11.41922046432539
558,9.788116930106577
559,7.803653583179333
560,6.74370425646695
561,6.724195211037594
562,7.240527014292763
563,8.021841106331598
564,8.464922582860815
565,16.520704256737954
566,19.06456091418163
567,19.287525277697238
568,16.44578575703574
569,146.42192366564387
570,152.49062159618583
571,167.18042407514866
572,168.18321490102215
573,163.47851594757742
574,154.3394887987652
575,146.62621700348637
576,140.17315459037357
577,134.98316958672618
578,126.66137821840026
579,122.99147407649849
580,112.38033523175086
581,99.76811994966654
582,89.34045290045471
583,82.9556951821398
584,79.52432991972293
585,79.18056622823417
586,80.57332424910359
587,81.51305370040328
588,81.52935599937776
589,86.3841178084861
590,99.72270989149797
591,112.53158141220362
592,126.9365949686703
593,136.99196809593204
594,149.48184968361562
595,157.5212029867355
596,156.32780656232708
597,155.57043357424408
598,155.27645591713662
599,153.81941153124492
600,144.86515471609994
601,133.4701102944499
602,123.23667990160912
603,106.16830442942694
604,81.3073076502846
605,54.33601924546188
606,37.565852880003426
607,34.100730036840375
608,29.905213309969067
609,26.567661439335165
610,26.73526690649033
611,27.630390815160293
612,27.404983430644787
613,27.594245757276155
614,27.98995866455181
615,28.261892474168878
616,31.192352621476054
617,37.659839804507314
618,54.28971481493069
619,84.96961570209379
620,112.46620040806748
621,134.29274382532913
622,144.36897210596615
623,146.97684491519223
624,144.6578698608307
625,145.28830197364937
626,148.05852009958872
627,154.61174511834597
628,152.28673794634426
629,142.76306854819074
630,135.48749086708736
631,131.62891415863282
632,130.04336184227586
633,130.36492212183353
634,130.98050123528742
635,131.91333196987685
636,131.99916505630935
637,130.41521963174813
638,131.95186870775797
639,131.89979190690795
640,131.22591342769806
641,130.66003307714075
642,130.72483495827933
643,130.67364612755426
644,129.39167281116576
645,128.16810560697226
646,127.98964327998726
647,128.16795832314133
648,127.52013361448611
649,127.29312010961509
650,127.6630200366362
651,127.59071088569259
652,127.12853347003212
653,126.82447578315767
654,126.74720359606184
655,126.56262166090961
656,126.57898823335171
657,126.37946671105354
658,125.94966954613075
659,124.84528291497554
660,124.40699366453082
661,123.40379988539712
662,122.4651486595158
663,121.85122341466197
664,120.78215074660443
665,119.49952095165987
666,118.13646605555981
667,116.5830190073254
668,116.01241100616508
669,115.73723895454094
670,114.70863558778261
671,113.91225749798778
672,112.04772253524182
673,110.01092788320736
674,108.53395054551588
675,105.43994448917758
676,103.45361938420774
677,98.65312426762019
678,95.98208421373566
679,92.80434186242888
680,90.47605873344844
681,86.39326290511265
682,82.07478619709262
683,72.45104777745935
684,60.17441052849552
685,52.39048155638383
686,46.61231869831417
687,39.519943370828365
688,36.61734537960876
689,33.067750100897136
690,32.674287668419026
691,32.87570181511403
692,30.81954545977634
693,31.02004892884758
694,30.84433127129912
695,31.310911922769712
696,31.40980135607534
697,30.973278407236453
698,30.756277341420752
699,30.60875323468697
700,30.129412926741168
701,30.199236173974402
702,30.447193286025588
703,30.30228936223404
704,30.131904105881752
705,30.19808738515102
706,30.044950605138347
707,30.04403832628886
708,29.514299300543982
709,29.20486908362057
710,29.4750277131266
711,29.741655307946793
712,29.88301388746094
713,29.90960360009755
714,29.877962429351467
715,29.913926550431725
716,29.837954553334885
717,29.70324107463828
718,29.501386230367125
719,29.270453897754205
720,28.810795046064403
721,27.94695950816201
722,27.508635913720326
723,27.266044496103426
724,27.145129695025233
725,26.969937768821087
726,27.080157621973754
727,27.18601656338639
728,26.93088454234597
729,26.75650798827022
730,26.64105698644186
731,26.596037935697474
732,26.45092247427947
733,26.073704190047014
734,25.699253656116927
735,25.33282285142007
736,24.939993841903235
737,24.674169925090332
738,24.476696424194184
739,24.44629156924355
740,24.424169495989247
741,24.422185376926922
742,24.474188610179226
743,24.636416416904243
744,24.95135314611371
745,25.12482113718816
746,25.524613829403908
747,25.660754345724108
748,25.88465589570452
749,26.41643976727729
750,26.838424686727283
751,26.908707914581992
752,26.84446533744778
753,26.909412898457507
754,26.943598577479555
755,26.98695169636163
756,27.063413215933984
757,27.060215909622084
758,27.03731520382558
759,27.050743137988054
760,27.171833629049697
761,27.030030946591854
762,26.932861191821775
763,26.9500735008344
764,26.807212128540918
765,26.73967677026323
766,26.634381392467787
767,26.829602339953276
768,27.09798562841321
769,27.334343379394486
770,27.238021112462317
771,27.225410221896777
772,27.225163996315892
773,27.151433593678178
774,27.08070125658303
775,27.00285764271317
776,26.830115131535788
777,26.76936303985777
778,26.747906142521785
779,26.74204922187468
780,26.71756602538083
781,26.68300816660237
782,26.642224070319358
783,26.616263096865726
784,26.577623095036813
785,26.56375359580606
786,26.461463051674627
787,26.447872336263753
788,26.437011526913
789,26.363991580780684
790,26.308312660318897
791,26.315046249403924
792,26.335620779780307
793,26.391908348171913
794,26.45172859276283
795,26.54233913164358
796,27.21145186133646
797,27.63974653671918
798,28.033920308581212
799,28.000709474575284
800,27.80133835722721
801,27.57652243759941
802,27.443060981887086
803,27.35460111599639
804,27.287602497194733
805,27.44455352271599
806,28.02454216872879
807,27.756802278200762
808,27.748569402390526
809,27.71763596644147
810,27.447718770719643
811,26.83431647080129
812,26.50637484685938
813,26.27751052768459
814,26.164043742163045
815,25.318871950672204
816,24.11048115339667
817,23.72966441710609
818,23.502206283275424
819,23.674948445218153
820,23.862479981776595
821,24.100235148982055
822,24.498764901682403
823,24.881105623644324
824,25.573985147401118
825,27.553024290978527
826,29.448480539866473
827,32.80817519749948
828,33.938787823698
829,49.120350531334786
830,90.53158071006678
831,119.234749725354
832,135.45431967697456
833,149.0195024404916
834,159.61388280261465
835,163.0900112744641
836,162.4242567236922
837,158.71345406684637
838,153.01493330841976
839,129.00426498188102
840,92.51914967142257
841,51.98554712526334
842,33.851592965816835
843,27.745096446927278
844,27.160949812440315
845,28.263240253945124
846,29.12320195508306
847,32.22309889144204
848,39.00164669754857
849,48.61117447409404
850,58.94884643712029
851,70.85461632001999
852,84.90658875323743
853,99.38038479184425
854,116.10889363887217
855,130.7302130405825
856,139.72060530008895
857,144.9197812247867
858,149.36584845082567
859,150.64075795640187
860,151.02487780649358
861,150.24120352953005
862,149.31852086984537
863,147.79011847622846
864,142.95265700943435
865,134.8075431794316
866,119.83840792470238
867,96.0110470412921
868,67.40117310445457
869,37.63352957636689
870,26.098267509016726
871,22.5472863057405
872,13.259747924737031
873,11.804876348808536
874,9.758605577592855
875,8.205433323876532
876,7.605297639179772
877,7.322207811665324
878,8.98425610262861
879,12.151496733038838
880,11.626649544776026
881,24.05076257227893
882,43.27277882962615
883,46.99149495462376
884,48.411699502569604
885,73.60554255864989
886,77.4980796985098
887,79.32144883594822
888,76.78994497566066
889,71.64049039803032
890,61.70751347516013
891,32.140578191144066
