,angle
0,95.69596533614822
1,96.30068182039315
2,96.77448030212793
3,97.36720279921485
4,97.779022692274
5,98.42256697916787
6,98.67861195083833
7,98.66802215781262
8,99.2467704080551
9,99.81145848205036
10,100.40601625507543
11,101.00550689605315
12,101.5835569012155
13,101.8170908769195
14,101.77881380047415
15,101.64192789859884
16,101.30098246297068
17,100.92514726708404
18,100.41843895355402
19,99.94530706958652
20,99.1729887214473
21,98.64200576634569
22,98.28234934944552
23,98.11417323754667
24,97.87748041576948
25,97.68233693930311
26,97.51464750026332
27,97.41663754656274
28,97.40302877847009
29,97.47123587282614
30,97.50277434631782
31,97.59187542642313
32,97.70756709065157
33,97.81034409384405
34,97.97863224502889
35,98.14822958988266
36,98.43914414907837
37,98.5159457514366
38,98.43908500714815
39,98.4424402903885
40,98.42953002076013
41,98.4281735127151
42,98.37180925047464
43,98.36800714022125
44,98.33482706496633
45,98.32640321648378
46,98.3428107174578
47,98.35215377405352
48,98.42198352704972
49,98.58960385188028
50,98.65901265065833
51,98.54350220230414
52,98.55743849388917
53,98.52972104785279
54,98.5020230473813
55,98.42401356185866
56,98.43289632734373
57,98.40361558565097
58,98.30011100024723
59,98.26700438122025
60,98.16435795615527
61,98.08626606620656
62,98.02249350182174
63,97.96933154378169
64,97.93673048427547
65,97.91029073755985
66,97.85072808365061
67,97.8066348090597
68,97.81282907297462
69,97.82880433095278
70,98.13725104097172
71,98.20280122503168
72,98.49965372281198
73,98.64936653535351
74,98.65424098165842
75,98.66860541343061
76,98.66088572181954
77,98.62860896107134
78,98.61033346486037
79,98.62254428603862
80,98.62879214201931
81,98.62734319489473
82,98.59878059426867
83,98.61011313256734
84,98.60507248730336
85,98.59942063715529
86,98.55826628427346
87,98.54900188906137
88,98.55242401248094
89,98.55260642229216
90,98.57027286007495
91,98.56259705879887
92,98.603676834915
93,98.6398221485596
94,98.63401973680791
95,98.64527913710486
96,98.6637438046508
97,98.68736486391185
98,98.68682735831796
99,98.708469608485
100,98.72644807282471
101,98.76762701296329
102,98.78005267232409
103,98.83044503692572
104,98.93047363626603
105,98.975079779702
106,99.00421664256834
107,99.09641565135284
108,99.13094758707099
109,99.09965354634964
110,99.00071378707408
111,99.06439219165729
112,99.07002957605627
113,99.03998424795668
114,99.04570931512833
115,99.13943054963994
116,99.22784515453216
117,99.46498319531827
118,99.55279187693282
119,99.69241730056507
120,99.63463190268493
121,99.74165374505077
122,99.86823398236544
123,99.89743702006945
124,99.89913457128574
125,99.81299280847185
126,99.74240828237396
127,99.63584490274366
128,99.53919386193314
129,99.33697211604965
130,98.99478013990672
131,98.75959252215321
132,98.55704982685262
133,98.51890012385839
134,98.33075383438945
135,98.06992395504784
136,98.0348601406035
137,98.01007812750902
138,98.00377362730225
139,97.90815417365351
140,97.91116990905373
141,97.99126401203822
142,97.96964706786709
143,97.9208109262241
144,97.84106762990217
145,97.7157158156106
146,97.71625443262332
147,97.71259993934684
148,97.79624869247117
149,97.83445047216054
150,97.86291329228958
151,97.8675604087432
152,97.8456282591237
153,97.89064970616563
154,97.86884450374738
155,97.84850932758958
156,97.81557803593778
157,97.75953088289504
158,97.77278708832445
159,97.75424586269902
160,97.9322722297789
161,98.02673099069919
162,98.04144192094294
163,98.04517449831228
164,98.09406486645723
165,98.13765475510367
166,98.20139288325942
167,98.23260449859694
168,98.19747728082538
169,98.23711553933651
170,98.25944891227226
171,98.32148227714151
172,98.45689052744673
173,98.55262054151613
174,98.60158293113915
175,98.6720207101365
176,98.8306778072439
177,98.8926390739069
178,98.97857055171315
179,99.06911160572575
180,99.24491258097615
181,99.37865248883665
182,99.44933631076525
183,99.52747822546422
184,99.57578483718248
185,99.67120731158565
186,99.72561826918927
187,99.78724822199169
188,99.78148866320856
189,99.78445097794574
190,99.78787548209918
191,99.76496400338587
192,99.73671883354592
193,99.77609252239084
194,99.77955854753952
195,99.75127810879862
196,99.67680290060346
197,99.58561845551387
198,99.44623570856182
199,99.35845910496525
200,99.24316950891041
201,99.18590749812678
202,99.13267345279337
203,99.10999403562943
204,99.11107832259074
205,99.1034383154591
206,99.01069898075924
207,98.96223015699562
208,98.98974140461718
209,98.98619230929293
210,98.96502110957277
211,98.94974963883784
212,98.9382125838048
213,98.95752263090556
214,98.97268008420998
215,99.00922168033551
216,99.1146051887071
217,99.15248269191561
218,99.19524020768822
219,99.27673202208783
220,99.34965858961502
221,99.34839660221306
222,99.370184877767
223,99.36934304067788
224,99.40285048068696
225,99.39221261469778
226,99.35680935940252
227,99.32253946720617
228,99.18630265071886
229,99.17512727787094
230,99.16840744691355
231,99.19675270010634
232,99.17390699002165
233,99.16383606205623
234,99.16585379989314
235,99.17155043283653
236,99.17400884408191
237,99.15251034676021
238,99.22498906745727
239,99.38312840454559
240,99.5706037118869
241,99.83530317020158
242,99.85967800648552
243,99.87236072194217
244,99.96458178943267
245,99.99622103618547
246,100.00710799237584
247,100.03029100604792
248,100.04308605034339
249,100.05718522208095
250,100.06024657585165
251,100.10000614622474
252,100.02671374166147
253,100.02073007009406
254,99.96284590651864
255,99.73356275885156
256,99.63203970744799
257,99.59566991085848
258,99.57185063755617
259,99.56023392535131
260,99.56408169860273
261,99.57906658247522
262,99.56259988349765
263,99.54657399210797
264,99.67240282788748
265,99.80561660286907
266,99.86640412530157
267,99.92911727614731
268,100.00284696636946
269,100.12369013112537
270,100.22810018335151
271,100.25187416544485
272,100.18005932344737
273,100.23643121801673
274,100.18055580523912
275,100.13862467793669
276,100.19177512106752
277,100.21538096934731
278,100.2044901461762
279,100.20408689311297
280,100.24739548498583
281,100.31990394528222
282,100.23938410216049
283,100.19730859538886
284,100.21033953359222
285,100.25196701849413
286,100.28502926762947
287,100.35098319317423
288,100.35225634112513
289,100.28249512956273
290,100.1794482404655
291,100.17856933173486
292,100.07402440983404
293,100.02730100861325
294,99.94685737722635
295,99.87907249829735
296,99.75516902658465
297,99.65108484250176
298,99.59520310091847
299,99.51720967316042
300,99.50185701820871
301,99.50290965868552
302,99.58900163170615
303,99.63787380353467
304,99.63153141365123
305,99.6535158100216
306,99.57007176742604
307,99.57650223622012
308,99.51347688504804
309,99.5064940453134
310,99.55488761150362
311,99.6492799384011
312,99.98077055308967
313,100.17391260597627
314,100.26116158671778
315,100.35400703253127
316,100.50370523619995
317,100.50761559395639
318,100.4712841872096
319,100.35587576287497
320,100.30520897286095
321,100.35453663075039
322,100.39574875112064
323,100.40014087267214
324,100.48893120388807
325,100.3584087083318
326,99.89200415444041
327,99.5919193265011
328,99.49162251792733
329,99.49333552188801
330,99.502734523455
331,99.52010518870263
332,99.62411727211018
333,99.7040520526707
334,99.6685039876752
335,99.68256138676954
336,99.65531133208333
337,99.64700817774735
338,99.73918212912012
339,99.91211541276284
340,100.10970848360775
341,100.51167485335154
342,100.76862977913794
343,100.93602885453505
344,101.09008529190486
345,101.19140619023847
346,101.22699472487716
347,101.18034994716163
348,101.17742832281897
349,101.17577210686073
350,101.12297653554927
351,101.12796855722985
352,101.10674488195566
353,101.14749802292773
354,101.16788846276451
355,101.17391585507261
356,101.17013735895367
357,101.23251060901468
358,101.23887421345812
359,101.23311975744839
360,101.37198845147788
361,101.39060492336978
362,101.44955360083765
363,101.51049439877511
364,101.53116601022316
365,101.54643878396973
366,101.61371365197306
367,101.62941210198659
368,101.63328211399295
369,101.67432764260178
370,101.69145827870744
371,101.69508109341768
372,101.64612521581898
373,101.64721668238462
374,101.63577686430983
375,101.61923602057703
376,101.62893765063109
377,101.62611711137208
378,101.64229539904187
379,101.66420071156432
380,101.68043585310255
381,101.6710274761715
382,101.67087687121472
383,101.68115338072818
384,101.51907903211281
385,101.49363225238466
386,101.45791150131362
387,101.43973811145332
388,101.39857698520046
389,101.35955519604767
390,101.3225328474715
391,101.31718234466325
392,101.30888943722516
393,101.30878715923143
394,101.30522960232207
395,101.31010963413524
396,101.44729861704491
397,101.47578437848773
398,101.42781590588265
399,101.39683856529007
400,101.43959523205518
401,101.46998201293536
402,101.37338863557693
403,101.29730943142641
404,101.15556176175173
405,101.07848360114833
406,101.00118362795445
407,100.95810160939915
408,100.93394155357477
409,100.90981803640028
410,100.8065168577319
411,100.77278421240415
412,100.73347495139096
413,100.68063539533256
414,100.63474762286677
415,100.60227082417612
416,100.58249458227512
417,100.51205720306966
418,100.51229103909549
419,100.50440375315675
420,100.42723086810867
421,100.35792917897984
422,100.29645187850409
423,100.33728214832175
424,100.41442854336597
425,100.5832914894929
426,100.64662821033465
427,100.69095665140844
428,100.72009778169357
429,100.74493560702862
430,100.806031098012
431,100.82256110281116
432,101.0888400751625
433,101.0816973713585
434,101.04898512363002
435,101.08537114413981
436,101.10332574118684
437,101.11730793932917
438,101.05482171339717
439,101.0264094998533
440,101.03846563703294
441,101.16354352713029
442,101.30730923260177
443,101.71798189897333
444,101.92476621984679
445,101.63312099818569
446,101.3043547107614
447,101.13836431392184
448,101.13204922315083
449,100.99069747014772
450,100.94095770586438
451,100.86482765743716
452,100.77842511942623
453,100.73575255079925
454,100.68919342645512
455,100.67463701982336
456,100.60655814922308
457,100.57738549242475
458,100.64132682057135
459,100.39908259238348
460,100.06137996219184
461,99.71964444542905
462,99.51654232608982
463,99.63120785526974
464,100.36933053990975
465,101.44986545989627
466,102.43584342190854
467,102.55068126232612
468,102.78658244684232
469,102.85622659685026
470,102.77877875210504
471,102.77660740617125
472,102.6822853323219
473,101.97350400543809
474,100.14848631575077
475,99.45793564776866
476,99.08876399463676
477,98.88025109425071
478,99.16063495248578
479,99.61530384343452
480,99.70465994247316
481,99.66636762142163
482,99.57280006819889
483,99.38391421906744
484,99.3763699109413
485,99.49722575187927
486,99.68860945424866
487,99.96003675075646
488,100.160976650869
489,100.56239271480943
490,100.72012834734333
491,100.54330008966181
492,100.15271805134186
493,99.98910412078659
494,99.70372574285676
495,99.16669067071552
496,98.96267342628921
497,98.75572018664575
498,98.71146581100824
499,99.12705540836623
500,99.41804848531048
501,99.64474282784906
502,99.42820964685951
503,99.09474012542987
504,98.77997630783327
505,98.66460340446547
506,98.73522978209684
507,98.6787876825119
508,98.55105151263845
509,98.2491962079491
510,98.37772286265499
511,98.2784106779215
512,98.36814874795233
513,98.15863393107828
514,97.91659823936631
515,97.50082609118607
516,98.49450775380429
517,98.87261413771135
518,99.91049345168821
519,100.3386853129639
520,100.63333535382196
521,100.115683336327
522,99.91599537978752
523,99.88060375058507
524,99.73616669995839
525,99.7527973102582
526,99.56617564683657
527,99.52186330053773
528,99.54945166629062
529,99.68895285245787
530,100.36822637219048
531,100.63498760834052
532,100.13025970071065
533,99.63689312836826
534,99.36158808540073
535,99.50419390109224
536,99.6783436397459
537,99.73397225705598
538,99.91358135069066
539,100.71945472001981
540,100.79224823545154
541,101.00100482515154
542,101.09046069701759
543,101.09124065034183
544,100.78126461893083
545,101.16360125221473
546,101.62926975988972
547,102.01476998671512
548,101.9692307185698
549,101.9734798052948
550,102.00121048069605
551,101.86880853818735
552,102.10026413396491
553,101.98945642057578
554,101.52674258501474
555,100.18859998195036
556,99.66382043278557
557,99.39924664378651
558,99.29099833135065
559,99.26623977354463
560,99.264574653113
561,99.23061704751093
562,99.44571896763632
563,99.8880644359374
564,100.13377766914248
565,99.66850720197574
566,99.48746386076688
567,99.51394284766967
568,100.34300669795056
569,100.94867564432582
570,101.99802342052243
571,102.36805169067009
572,101.91463005999213
573,101.7520086797976
574,101.39834936933335
575,100.70445610253098
576,100.29578081855657
577,99.78396027392857
578,99.89366845851153
579,100.3000312908561
580,100.61089169405379
581,100.44626529651201
582,100.2975686042265
583,100.18420180101788
584,100.11240661185124
585,99.97162275670061
586,99.90001693489948
587,99.96904243853704
588,99.94747172922021
589,100.0571344400849
590,100.19536699722114
591,99.8991399061229
592,99.28669149971937
593,98.89939370486216
594,98.69191318145101
595,98.68779554613349
596,99.45161935995026
597,100.28668539086391
598,101.09054782294538
599,101.0502657266805
600,101.03193773266207
601,100.91842875407087
602,100.69901616821596
603,100.86041374660965
604,100.54254347206705
605,99.6841188938137
606,99.64966997396328
607,99.70156081276657
608,99.5343620804456
609,99.28489908978294
610,99.40166036843986
611,99.33337030684027
612,98.93891436056721
613,98.64666127489369
614,98.60267327289986
615,98.74039943436003
616,99.01836981093963
617,99.07565551639036
618,99.06513282245874
619,99.98736056355317
620,100.19532943252787
621,100.1525197484541
622,100.69219738071071
623,100.82756758548625
624,100.76735287735366
625,100.59298924552307
626,100.56695168054901
627,100.47671232707302
628,100.45272593760187
629,100.52180912516195
630,100.65316493939417
631,100.63312980748628
632,100.53229931729737
633,100.40448616475032
634,100.25140022454667
635,100.16678634528995
636,100.04499529261352
637,99.87719404262494
638,99.76671166344607
639,99.35295705075858
640,98.94140212049463
641,98.8747960635206
642,98.84088325068228
643,98.52693275368173
644,98.49582784944388
645,98.46901365990146
646,98.43506389948132
647,98.41048569153142
648,98.41648396512618
649,98.36624016190487
650,98.47530439266562
651,98.44156624514343
652,98.36339273175425
653,98.06441162207813
654,98.0394817565153
655,98.05641063011885
656,98.05653531730617
657,98.04474538921963
658,97.99239506395575
659,97.95265571417661
660,98.13357701934966
661,98.42577272933993
662,98.68174003176242
663,98.72720972219467
664,98.89465557531739
665,98.9205544158863
666,98.95249541839267
667,98.93057874068994
668,98.97651850018023
669,99.18505614501498
670,99.28404654201617
671,99.31628118518623
672,99.25581869662811
673,99.19867433162867
674,99.1573668271222
675,98.89881950852543
676,98.79650521294982
677,99.16506007621753
678,99.23319848052874
679,99.21260054400392
680,99.22323056893606
681,99.29119959277607
682,99.16315077963633
683,99.02625468090832
684,98.9326188326745
685,98.76381504077463
686,98.63618190362526
687,98.42142848017698
688,98.28528638933112
689,97.94199877630933
690,97.93561523257856
691,98.09089724165733
692,98.15737456497173
693,98.27493934908406
694,98.62516749604252
695,98.7350156035149
696,99.3123285531451
697,99.90563674693551
698,99.94190652327572
699,99.92569651521696
700,99.90333913979211
701,99.96587519239122
702,99.95373112536839
703,99.91471773044461
704,99.90930284174176
705,99.83909384706668
706,99.81553246089376
707,99.80500134720218
708,99.80786914118532
709,99.83571787687724
710,99.78113025040761
711,99.7422893189989
712,99.41481891312903
713,99.33293922946896
714,99.26297909226714
715,99.29348073465508
716,99.33634343520033
717,99.35085430451748
718,99.34595293416989
719,99.25030868748449
720,99.31557391220866
721,99.35746510111997
722,99.34609334412276
723,99.30490428334166
724,99.1342786235755
725,98.98723131581333
726,98.97800870871171
727,99.01911443659809
728,98.94951431060571
729,98.79186611967042
730,98.60968522778346
731,98.50675973831308
732,98.30735625761852
733,98.2859933650112
734,98.30178233848274
735,98.31070317770353
736,98.31169093301156
737,98.31635544874231
738,98.29923501643849
739,98.30277604723899
740,98.28316108071681
741,98.36416555868263
742,98.36227342449584
743,98.37550821133973
744,98.20378317054403
745,98.03357940894357
746,97.92650166974883
747,97.8507560010916
748,97.82620892495109
749,97.85013583480512
750,97.86533192993305
751,97.88782576065887
752,97.88451596577504
753,97.9003747168343
754,97.91815405343141
755,97.88237878365047
756,98.04230659868935
757,98.36515445698166
758,98.57172518278486
759,98.80132528478897
760,98.83201208170914
761,98.92839334126508
762,98.95076462818726
763,98.94429093672467
764,99.00979094441317
765,99.02813822775383
766,98.97102101822809
767,98.9435875783993
768,98.96764802273341
769,99.0293769819966
770,99.01329288494038
771,99.13064817450956
772,99.1492506084035
773,99.15391554793581
774,99.18363727910896
775,99.18814944308977
776,99.18086310035058
777,99.14541735886421
778,99.11038078774591
779,99.09545609614992
780,99.09253422646704
781,98.96337866239377
782,98.80531995282168
783,98.63903898083011
784,98.62276284284512
785,98.47925584713118
786,98.32482352834361
787,98.10315163195946
788,98.11097209954079
789,98.09928660525867
790,98.13858606613464
791,98.16178021456318
792,98.24323536559169
793,98.53891329620824
794,98.71773125554185
795,98.86904112433791
796,98.9868927930426
797,99.17643272332955
798,99.23073238711227
799,99.24599183914158
800,99.19491070699202
801,99.14274824742319
802,99.06347062155368
803,98.96735578713832
804,98.9486221326096
805,99.03937890305659
806,99.14680267247108
807,99.18984643495384
808,99.38158914807393
809,99.61571536616825
810,99.8968673423692
811,100.29977597223063
812,100.56862057284638
813,100.65456386843073
814,100.82159073608784
815,100.9078488423516
816,101.19606168888987
817,101.2929107950003
818,101.31259366047891
819,101.1962308060219
820,101.24223603525633
821,101.28240030279437
822,101.26280417798301
823,101.277154851705
824,101.3298458759208
825,101.4323879648233
826,101.32409703717457
827,100.985585712366
828,100.49363833423297
829,100.64401454771114
830,101.89837225892143
831,102.33017570127737
832,102.66893464937368
833,102.53155997290304
834,102.31006382618955
835,101.9993107612687
836,101.73913040439533
837,101.54257607107843
838,101.2255396824437
839,101.26241324599874
840,100.13070880723879
841,99.65403736901035
842,100.40250023757793
843,100.56529885904096
844,100.2667846797248
845,99.87140215553838
846,99.82740151138059
847,99.90544454001541
848,99.9342782815012
849,100.09651576939876
850,100.47341649377607
851,100.57275521596105
852,100.50296935916606
853,100.62450171543311
854,100.66917598143134
855,100.68149498130381
856,99.71363045798861
857,99.35773365851499
858,99.04280798041151
859,98.66430721723394
860,98.25082827021016
861,97.98293070020475
862,97.94225044160521
863,97.74756789829421
864,97.48640511045289
865,97.8023564042322
866,98.4469769439732
867,98.3479809979434
868,98.12637293319496
869,97.82973427197166
870,97.7786722332553
871,97.86202583849258
872,97.85486486645331
873,97.84714772042305
874,97.57038758643277
875,97.47367028142416
876,97.73813203667507
877,98.06617347140875
878,98.26919854256906
879,98.11173207162892
880,97.76086430075547
881,97.64554447491213
882,97.7771026110073
883,98.6006851735493
884,98.86340548376421
885,99.28721538571016
886,99.56075014169228
887,99.52217187133007
888,99.73724841651288
889,99.66401318703664
890,99.6033657447241
891,99.26541924721346
892,98.04368849963402
893,98.35145953450973
894,98.80526617790292
895,99.27270680303451
896,99.26864406176679
897,99.64873292322574
898,99.5157066167437
899,99.11616932677701
900,98.88017890039279
901,98.55011186354206
902,98.74737175570453
903,99.16771228499717
904,99.55444031370375
