,angle
0,13.361468386522747
1,12.92342432433569
2,12.473550476118849
3,11.671999076647058
4,11.209090416180356
5,10.983922290932185
6,10.659109650575056
7,10.319484272022908
8,10.169458005785376
9,10.06199232480538
10,10.002176924024115
11,9.884448910572935
12,9.840437066319115
13,9.801310923157768
14,9.769388991364824
15,9.757648638168657
16,9.777642184111437
17,9.78921131265781
18,9.83814438933413
19,9.886433122597712
20,9.881806082097025
21,9.847407100261833
22,9.757744740504338
23,9.657947856024126
24,9.70412162843083
25,9.779783346089383
26,9.818384392698555
27,9.827949305994188
28,9.862582657202674
29,9.94814467517267
30,10.08922665146438
31,10.179227003374974
32,10.241200352002418
33,10.253304680511414
34,10.25711288959022
35,10.240479286064327
36,10.243325373841104
37,10.219066482544568
38,10.218349789692555
39,10.215747750912296
40,10.201994240262039
41,10.194561511839982
42,10.127905349768415
43,10.076633511137443
44,10.045004014483458
45,9.971528315642066
46,9.942112105367958
47,9.905950341250373
48,9.895246273525235
49,9.86706989310259
50,9.864193454549316
51,9.801508731766114
52,9.74781657488164
53,9.726323739529644
54,9.727991956240814
55,9.724328830963886
56,9.722629657365268
57,9.713558356081116
58,9.724746321759918
59,9.73797650861483
60,9.786197251509439
61,9.844824775659989
62,9.863530381448145
63,9.874400947105652
64,9.859995683485453
65,9.867462469016832
66,9.863804736926227
67,9.866837137438226
68,9.862935513096941
69,9.858194572458107
70,9.849594226043862
71,9.844359359885509
72,9.787707748751622
73,9.773201961055767
74,9.763126098486026
75,9.74896927399285
76,9.730620980508332
77,9.719254628821037
78,9.721932207149552
79,9.728118480594528
80,9.734620721529659
81,9.756665696028017
82,9.758435423528054
83,9.742362377967277
84,9.707926341231138
85,9.694572857158795
86,9.67755302440534
87,9.696003758582487
88,9.697649266048728
89,9.717058007956846
90,9.736601320573195
91,9.752797871716233
92,9.773897513343783
93,9.798641795755541
94,9.838220146894384
95,9.866073601361496
96,9.875425175141427
97,9.916104464077833
98,9.930965484629532
99,9.93787674854449
100,9.940361229499713
101,9.961065517750987
102,9.973197205812877
103,9.960062834033044
104,9.942855487816782
105,9.926849627921124
106,9.88682246879918
107,9.83843368860655
108,9.856980141437411
109,9.858565933822849
110,9.868178522050565
111,9.854223154885014
112,9.954589720066622
113,10.010391369153007
114,10.038930197894931
115,10.077965933779002
116,10.102709857270533
117,10.217719281223705
118,10.331038901188862
119,10.363087270586984
120,10.359361174939194
121,10.303876015292888
122,10.491234194297888
123,10.92856928800351
124,11.433195992796799
125,11.887088615050828
126,12.39504526348302
127,12.478064064156664
128,12.891153250608033
129,13.226329991865244
130,13.377820616734832
131,13.542628180913509
132,13.679935744091225
133,13.701512777521678
134,13.690552725968471
135,13.862764833124459
136,14.024039853004101
137,13.646281761023486
138,12.78909266251229
139,11.84608195491989
140,11.219287021761158
141,10.836179660201761
142,10.427544505302121
143,10.09407964997354
144,9.719923291359972
145,9.629713877488749
146,9.341329371496743
147,8.937357422677891
148,8.75662478129439
149,8.615251621848069
150,8.421424798132023
151,8.438320454893205
152,8.776406767402733
153,9.24460035617558
154,10.047393828805651
155,10.693097731675424
156,11.236557462539404
157,11.649253708899137
158,11.923061861545778
159,12.011302652541655
160,12.059137821868914
161,12.177124307503618
162,12.174500857435929
163,11.835099547138595
164,11.064665263851385
165,10.59938454406203
166,9.701218743289193
167,9.225223874133881
168,8.954262630840196
169,9.012290693094107
170,8.767586013668394
171,8.6065563013211
172,8.634411864557899
173,8.631607829731301
174,8.928876050297152
175,10.23124767640969
176,11.59569982872517
177,13.77266267701572
178,15.38796524298802
179,17.41534307456717
180,18.075691992095567
181,18.617510847023315
182,19.064721510141037
183,21.454060771461755
184,22.105206726645985
185,22.747087099674214
186,22.91839920872145
187,23.026404506526994
188,23.237941428662584
189,22.6475749970089
190,22.464403357250916
191,19.572579069214274
192,16.155324475329568
193,14.09504086864263
194,12.642722721716918
195,11.311897113683358
196,11.030465022526553
197,10.887904468446564
198,10.606234724985121
199,10.406093315649148
200,10.053574685667027
201,9.830282112165767
202,9.477577204760264
203,9.53155520095365
204,9.766348250189672
205,10.103144408566584
206,10.655686722008902
207,11.629622771093278
208,12.55224978326437
209,13.133348937085113
210,14.28449347011338
211,14.970804430154457
212,15.909257903878949
213,16.87618832311822
214,17.02301775128651
215,17.207261238035368
216,17.557435787873914
217,17.858906979498844
218,16.335930359445364
219,14.46269068156889
220,13.929686725194397
221,13.5958513685497
222,12.96323118370815
223,12.317369908758709
224,12.129384635776116
225,12.270835979141347
226,12.518609335172913
227,12.584170453863035
228,13.54307755475964
229,14.941149388522643
230,16.13203750338152
231,16.6532295628241
232,17.131627181334796
233,17.06441932559323
234,16.53967387605125
235,16.54257711397374
236,16.203504743935707
237,15.87414321911793
238,15.455576631940065
239,14.856766498301818
240,13.951063168654983
241,13.216164497846439
242,12.429261515086512
243,11.870836417001428
244,11.581937676383404
245,11.414426272422979
246,11.375751901795033
247,11.360536265057034
248,11.2196577312021
249,11.174886069518413
250,11.083190481595498
251,11.086554497846484
252,11.123848648521722
253,10.94695995781088
254,10.7081089971597
255,10.63029072957454
256,10.667072653567104
257,11.035127343933778
258,11.099452134143117
259,11.105248349565933
260,11.077069848416077
261,11.399245470126013
262,12.117031773725396
263,13.113175309369433
264,13.523533272427981
265,13.350736633322754
266,13.278762971945964
267,13.148165893679996
268,13.27845970320461
269,13.379141510269296
270,13.365572364292419
271,13.287800554846598
272,13.154140472274603
273,13.141500726723145
274,13.154183209388837
275,13.261234638738147
276,12.834229963757924
277,12.761614396959372
278,12.89343053645561
279,12.953005286150745
280,13.689533815199052
281,13.965460077923128
282,14.50727973263248
283,15.217436769982783
284,16.313491701345782
285,17.63461624269649
286,18.64950443730221
287,19.57700840740088
288,20.140436131467567
289,20.936761857131255
290,22.018587324917657
291,22.598422415867706
292,22.02114245796839
293,22.09115209880846
294,22.679690132853587
295,23.06666017541861
296,22.89061253480502
297,22.133889578623144
298,19.936659502106487
299,16.340298005400182
300,13.93877393135785
301,13.041830085591792
302,12.83450072806175
303,13.048465886627085
304,13.054014338879677
305,12.799893862597207
